# Koester WD models
# teff = 5000 K (value for the effective temperature for the model. Temperatures are given in K)
# logg = 6.75 log(cm/s2) (value for Log(G) for the model.)
#
# column 1: WAVELENGTH (ANGSTROM), Wavelength in Angstrom
# column 2: FLUX (ERG/CM2/S/A), Flux in erg/cm2/s/A
         899.23     0.000144125 
        900.638     0.000151821 
        902.048       0.0001599 
        902.677     0.000163643 
        903.456      0.00016838 
        904.235     0.000173245 
        905.793     0.000183371 
         907.35     0.000194048 
        908.573     0.000202843 
        908.907     0.000205305 
        909.241     0.000207796 
        909.784     0.000211916 
        909.908     0.000212861 
        910.032     0.000213811 
        910.279     0.000215721 
        910.772      0.00021959 
        911.485     0.000225293 
        911.759     0.000227523 
        911.881     0.000228514 
        912.034     0.000229774 
        912.582     0.000234338 
        913.037     0.000238184 
        913.241     0.000239931 
        913.284       0.0002403 
        913.478     0.000241976 
        913.531     0.000242435 
        913.755     0.000244377 
        913.822     0.000244963 
         914.08     0.000247234 
        914.165     0.000247986 
        914.499     0.000250963 
        914.575     0.000251645 
        915.071     0.000256129 
         915.54     0.000260447 
        915.609     0.000261078 
        915.643     0.000261394 
        915.677     0.000261711 
        915.741     0.000262308 
        915.813     0.000262981 
        916.085     0.000265539 
        916.429     0.000268808 
        916.858     0.000272927 
        917.118     0.000275458 
        917.196     0.000276221 
        917.378     0.000278011 
        917.899     0.000283183 
        917.952     0.000283715 
        918.287       0.0002871 
        918.602     0.000290308 
        919.251     0.000297043 
        920.215     0.000307307 
        921.882     0.000325755 
        921.999     0.000327156 
        922.143     0.000328834 
        922.405     0.000331859 
         922.81     0.000336578 
        923.621     0.000345104 
        924.432     0.000355251 
        925.001     0.000363303 
        925.242     0.000366413 
        925.484     0.000369502 
        925.564     0.000370532 
        925.966     0.000375697 
        926.164      0.00037805 
        926.369     0.000380274 
        926.669     0.000383409 
        927.173     0.000389294 
        927.276     0.000390305 
        927.678     0.000395621 
        927.729     0.000396321 
        928.182     0.000402812 
        928.636     0.000410204 
        928.917      0.00041491 
         928.98      0.00041606 
        929.089     0.000417929 
        929.261     0.000420779 
        929.317     0.000421683 
        929.543     0.000425199 
        929.655      0.00042687 
        929.769     0.000428554 
        929.827     0.000429409 
        929.883     0.000430238 
         929.91      0.00043064 
        929.939      0.00043107 
        929.954     0.000431294 
        929.968     0.000431501 
        929.982     0.000431708 
        929.996     0.000431919 
         930.01     0.000432126 
        930.024     0.000432333 
        930.038     0.000432544 
        930.052     0.000432751 
        930.081     0.000433185 
        930.137      0.00043402 
        930.201     0.000434979 
        930.247     0.000435667 
        930.249     0.000435695 
        930.251     0.000435726 
        930.301     0.000436477 
        930.326     0.000436838 
        930.329     0.000436882 
        930.402     0.000437973 
        930.478     0.000439097 
         930.63     0.000441271 
        930.931     0.000445186 
        931.229     0.000448701 
         931.49     0.000451912 
        931.534     0.000452509 
        931.838     0.000456385 
        931.968     0.000457887 
        932.447     0.000464576 
        932.925     0.000472009 
        933.265     0.000477469 
        933.403     0.000479721 
        933.432      0.00048018 
        933.542     0.000481986 
        933.652     0.000483808 
        933.872     0.000487487 
        933.973     0.000489193 
        934.073     0.000490893 
        934.312     0.000495005 
        934.316     0.000495077 
        934.652     0.000501511 
         935.23     0.000512626 
        935.688     0.000522337 
        936.144     0.000532154 
        936.372     0.000536807 
        936.601     0.000541168 
        936.714     0.000543263 
        936.829     0.000545387 
        936.887     0.000546458 
        936.944     0.000547517 
        936.973     0.000548054 
        937.001     0.000548575 
        937.015     0.000548836 
        937.029     0.000549097 
        937.043     0.000549358 
        937.058     0.000549634 
        937.072     0.000549898 
        937.086     0.000550159 
        937.101     0.000550438 
        937.115     0.000550699 
        937.143     0.000551221 
          937.2     0.000552286 
        937.314     0.000554422 
        937.493     0.000557787 
        937.542     0.000558701 
        937.593     0.000559646 
        937.694     0.000561469 
        937.788      0.00056313 
        937.894     0.000564931 
            938     0.000566652 
        938.212     0.000569875 
        938.359     0.000572075 
        938.556     0.000574949 
        938.636     0.000576297 
        938.914     0.000580585 
        939.231     0.000585775 
        939.271     0.000586504 
        939.986     0.000598932 
         940.74     0.000613553 
        941.452     0.000628542 
        941.495     0.000629459 
         942.25     0.000645242 
        943.048     0.000662728 
        943.978     0.000684016 
        944.643      0.00069913 
        945.308     0.000715432 
        946.115     0.000735915 
        946.637     0.000750297 
        947.158     0.000765851 
        947.276     0.000769228 
        947.621     0.000779991 
         947.68     0.000781732 
        948.083     0.000793972 
        948.314     0.000800537 
        948.546     0.000806808 
        948.661     0.000809884 
        948.777     0.000812991 
        948.835     0.000814546 
        948.893     0.000816107 
        948.922     0.000816886 
        948.951     0.000817669 
        948.966     0.000818074 
         948.98     0.000818451 
        948.994     0.000818831 
        949.009     0.000819236 
        949.023     0.000819613 
        949.037      0.00081999 
        949.052     0.000820399 
        949.066     0.000820776 
        949.095     0.000821561 
        949.153     0.000823132 
         949.23     0.000825224 
        949.258     0.000825988 
        949.269     0.000826286 
         949.28     0.000826584 
         949.33     0.000827948 
         949.36     0.000828768 
         949.43     0.000830681 
          949.5     0.000832591 
         949.64      0.00083638 
        949.795     0.000840436 
        949.879     0.000842607 
        949.921     0.000843672 
        949.963     0.000844686 
        950.047     0.000846697 
        950.131     0.000848761 
        950.467     0.000856486 
        950.718     0.000861751 
        950.888     0.000865927 
        951.728     0.000885643 
        952.738     0.000912991 
        953.502     0.000935972 
        953.748     0.000943929 
        954.758     0.000976636 
        955.251     0.000993604 
        956.014      0.00102051 
        956.261      0.00102931 
         957.27      0.00106556 
        958.148      0.00109872 
         958.28      0.00110378 
        959.289      0.00114304 
         960.43      0.00118876 
        961.192      0.00122011 
        962.712      0.00128452 
        963.468      0.00131767 
        964.231      0.00135176 
         965.75      0.00142182 
        966.767      0.00147031 
        968.032      0.00153246 
        968.668      0.00156433 
        968.979      0.00157917 
        969.297      0.00159522 
        969.453      0.00160316 
        969.927      0.00162783 
          970.4      0.00165025 
        970.638      0.00166009 
        970.874      0.00166742 
         971.11       0.0016702 
        971.348       0.0016669 
        971.467      0.00166552 
        971.585      0.00167185 
        971.644      0.00168202 
        971.703      0.00169336 
        971.732      0.00169814 
        971.762      0.00170101 
        971.778      0.00170201 
        971.792      0.00170277 
        971.806      0.00170352 
        971.821      0.00170432 
        971.827      0.00170464 
        971.833      0.00170496 
        971.836      0.00170512 
        971.839      0.00170528 
        971.851      0.00170592 
        971.866      0.00170672 
         971.88      0.00170747 
         971.91        0.001709 
        971.969      0.00170853 
        972.037      0.00170182 
        972.087      0.00169972 
        972.137      0.00170067 
         972.15      0.00169994 
        972.199      0.00170346 
        972.237      0.00170812 
        972.324      0.00171824 
        972.499      0.00174038 
        972.798      0.00177182 
        973.047      0.00179215 
        973.097      0.00179586 
        973.248      0.00180662 
        973.396      0.00181673 
        973.746      0.00183834 
        974.444      0.00188258 
         975.64      0.00195766 
        976.759       0.0020293 
        978.032      0.00211329 
        979.305      0.00220018 
        979.778      0.00223329 
        980.578      0.00229017 
        981.851      0.00238335 
        983.923      0.00254232 
        985.373      0.00265913 
        985.996      0.00271073 
        986.414      0.00274592 
        986.618      0.00276323 
        987.863      0.00287095 
        989.312      0.00300114 
        990.541      0.00311565 
        990.761      0.00313657 
         992.21      0.00327753 
         993.88      0.00344702 
        995.549      0.00362439 
        995.989      0.00367252 
        997.218      0.00381003 
        997.574      0.00385074 
        997.806      0.00387751 
        998.447      0.00395219 
        999.319      0.00405602 
        999.435      0.00407003 
        1001.06      0.00427137 
        1002.69       0.0044818 
        1004.32      0.00470161 
        1005.84      0.00491452 
        1005.95      0.00493123 
        1007.58      0.00517097 
        1009.33      0.00543957 
        1011.07      0.00572037 
         1011.3      0.00575873 
        1012.82       0.0060143 
        1014.33      0.00628143 
        1015.38      0.00647344 
        1015.84      0.00656056 
        1017.36      0.00684905 
        1017.62      0.00690227 
        1019.05      0.00718627 
        1019.33      0.00724385 
        1021.04      0.00759379 
        1022.04      0.00779614 
        1022.54      0.00789177 
        1023.04      0.00797716 
        1023.54      0.00803861 
        1023.79      0.00806239 
        1024.04      0.00806821 
        1024.29      0.00805683 
        1024.41       0.0080449 
        1024.54      0.00803509 
        1024.67      0.00803198 
        1024.79      0.00807239 
        1024.85      0.00811392 
        1024.91      0.00816481 
        1024.95      0.00818611 
        1024.98      0.00819843 
        1024.99      0.00820248 
        1025.01      0.00820628 
        1025.03      0.00820996 
        1025.04      0.00821338 
        1025.06      0.00821706 
        1025.07      0.00822073 
        1025.09      0.00822416 
         1025.1      0.00822783 
        1025.13       0.0082349 
         1025.2      0.00823946 
        1025.27      0.00821426 
        1025.32      0.00820386 
        1025.37      0.00819513 
        1025.47      0.00821583 
        1025.52      0.00824172 
        1025.57      0.00826283 
        1025.62      0.00829227 
        1025.72      0.00834621 
        1025.77      0.00837593 
        1025.92      0.00845745 
        1026.07      0.00853266 
        1026.26       0.0086216 
        1026.37      0.00866037 
        1026.67      0.00877849 
        1027.07      0.00891983 
        1027.47      0.00904612 
        1027.48      0.00905002 
        1028.28        0.009278 
         1028.8      0.00942167 
        1029.07      0.00949587 
        1029.34      0.00957023 
        1029.88      0.00971883 
        1030.96       0.0100198 
        1033.08       0.0106242 
        1033.13       0.0106394 
        1033.19       0.0106546 
        1033.23       0.0106673 
        1033.29       0.0106852 
         1033.5       0.0107464 
        1033.91       0.0108697 
        1034.75       0.0111202 
        1036.27        0.011591 
        1037.78       0.0120795 
        1039.17       0.0125426 
        1039.26       0.0125718 
         1039.3       0.0125864 
        1039.34        0.012601 
         1039.5       0.0126555 
        1039.52       0.0126596 
        1039.86       0.0127775 
        1040.55       0.0130163 
        1041.92       0.0135063 
        1044.35       0.0144091 
        1046.77        0.015367 
        1049.03       0.0163139 
        1049.19       0.0163829 
        1049.35       0.0164522 
        1049.67        0.016592 
        1050.31       0.0168747 
        1051.59       0.0174535 
        1053.95       0.0185688 
        1054.15       0.0186662 
        1054.35       0.0187641 
        1054.75       0.0189614 
        1054.95       0.0190608 
        1055.55       0.0193617 
        1057.15       0.0201855 
        1059.36       0.0213711 
        1061.56        0.022617 
        1063.16       0.0235645 
        1063.76       0.0239291 
        1064.36       0.0242989 
        1065.56       0.0250541 
        1066.56       0.0256998 
        1067.96       0.0266294 
        1069.36       0.0275898 
        1069.96       0.0280127 
        1072.16       0.0296148 
        1074.36       0.0313007 
        1076.56       0.0330744 
        1078.16       0.0344215 
        1078.69       0.0348732 
        1078.76       0.0349399 
        1078.98        0.035128 
        1079.36       0.0354651 
        1080.57       0.0365336 
        1080.71       0.0366658 
        1082.44       0.0382637 
        1084.17       0.0399249 
         1085.9       0.0416522 
        1087.64       0.0434479 
        1089.32       0.0452603 
        1089.37        0.045314 
        1089.42       0.0453706 
        1089.52       0.0454812 
        1089.72       0.0457029 
        1090.12       0.0461497 
        1090.67       0.0467705 
        1090.92       0.0470551 
        1092.52       0.0489149 
        1094.37       0.0511492 
        1096.22       0.0534768 
        1096.77       0.0541874 
        1098.07       0.0559012 
        1099.37       0.0576642 
        1099.57       0.0579391 
        1101.97       0.0613324 
        1104.37       0.0649062 
        1106.78       0.0686708 
        1108.98       0.0722959 
        1109.18       0.0726339 
        1109.38       0.0729735 
        1109.78       0.0736619 
        1109.98       0.0740081 
        1110.58       0.0750564 
        1112.18       0.0779181 
        1114.38       0.0820166 
        1116.58       0.0863112 
        1118.18       0.0895627 
        1118.68       0.0906098 
        1118.78       0.0908106 
        1119.38       0.0920744 
        1120.08       0.0935607 
        1121.47       0.0965993 
        1123.78        0.101836 
        1124.25        0.102945 
        1124.73        0.104061 
        1125.68        0.106327 
        1125.79        0.106586 
        1127.08         0.10972 
        1127.59        0.110993 
        1129.38        0.115565 
        1131.69        0.121695 
        1132.46        0.123805 
           1134        0.128119 
        1135.54        0.132569 
        1137.85        0.139501 
        1138.62        0.141888 
        1139.39        0.144309 
        1140.93        0.149262 
        1143.63        0.158303 
        1143.95        0.159404 
        1144.01        0.159611 
        1144.39         0.16093 
        1145.15        0.163596 
        1146.67        0.169035 
        1149.39        0.179147 
        1149.83        0.180823 
        1152.11        0.189726 
        1154.39        0.198952 
        1156.67        0.208512 
        1158.51        0.216466 
        1158.95        0.218399 
        1159.39        0.220348 
        1159.67        0.221592 
        1160.27         0.22427 
        1162.03        0.232275 
        1164.39         0.24339 
        1166.76        0.255018 
        1168.84        0.265466 
        1169.12        0.266901 
        1169.39        0.268343 
        1169.96        0.271238 
        1171.08        0.277069 
        1172.24        0.283245 
        1173.32        0.289163 
        1173.72        0.291567 
         1174.4         0.29543 
        1175.14        0.299728 
        1176.56        0.308519 
        1177.86        0.316713 
        1177.98        0.317471 
         1179.4        0.327027 
        1180.94        0.337831 
        1182.86        0.351488 
        1184.01        0.360058 
        1185.17        0.368832 
        1185.56        0.371779 
        1187.48        0.386642 
        1188.24        0.392715 
         1189.4        0.402337 
        1191.32         0.41829 
         1194.4        0.445079 
        1195.56         0.45555 
        1197.48        0.473683 
         1199.4        0.492146 
        1201.32        0.511304 
        1202.09         0.51917 
        1203.25         0.53162 
         1204.4        0.544089 
        1206.72        0.570347 
        1208.67        0.593161 
        1209.04        0.597525 
         1209.4         0.60191 
        1209.96         0.60858 
        1210.14         0.61081 
        1210.17        0.611143 
        1210.33        0.613057 
        1210.69         0.61753 
        1211.43        0.626534 
        1211.51        0.627502 
        1212.69        0.642101 
        1213.28        0.649471 
        1213.88        0.656926 
        1214.17         0.66068 
        1214.47        0.664456 
        1214.62        0.666354 
        1214.76        0.668251 
        1214.84        0.669203 
        1214.91        0.670158 
        1214.95        0.670633 
        1214.98         0.67111 
           1215        0.671355 
        1215.02        0.671588 
        1215.04         0.67182 
        1215.06        0.672068 
        1215.08        0.672301 
         1215.1        0.672533 
        1215.11        0.672778 
        1215.13        0.673011 
        1215.17        0.673488 
        1215.24         0.67445 
        1215.39        0.676369 
        1215.64        0.679574 
        1215.69        0.680227 
        1215.74        0.680881 
         1215.8        0.681638 
        1215.84        0.682187 
        1216.04        0.684811 
        1216.06        0.685166 
        1216.28        0.687999 
        1216.76        0.694414 
        1217.46        0.703773 
        1218.32        0.715303 
        1218.86         0.72272 
        1218.98        0.724404 
        1219.41        0.730125 
        1219.83        0.735811 
         1220.1        0.739531 
        1220.67        0.747184 
        1222.36        0.769574 
        1224.62        0.800849 
        1226.88        0.833483 
        1228.86        0.863919 
        1229.13        0.868317 
        1229.41         0.87275 
        1229.74        0.878125 
        1229.96        0.881704 
        1230.18        0.885291 
        1230.62        0.892523 
        1231.49        0.907154 
        1231.69        0.910562 
        1233.24        0.937109 
        1234.79        0.963831 
        1236.38        0.992281 
        1237.89          1.0204 
        1239.41         1.04925 
        1240.47         1.06988 
        1242.44         1.10924 
        1244.41         1.14935 
        1247.29         1.21107 
        1248.35         1.23457 
        1248.65          1.2413 
