# Koester WD models
# teff = 5500 K (value for the effective temperature for the model. Temperatures are given in K)
# logg = 9.5 log(cm/s2) (value for Log(G) for the model.)
#
# column 1: WAVELENGTH (ANGSTROM), Wavelength in Angstrom
# column 2: FLUX (ERG/CM2/S/A), Flux in erg/cm2/s/A
         899.23      0.00296985 
        901.358       0.0031896 
        902.738      0.00333995 
        903.486      0.00342434 
        904.235      0.00351073 
        905.733      0.00368955 
        907.232      0.00387682 
        908.219      0.00400493 
         908.45      0.00403556 
        908.729      0.00407285 
        909.241      0.00414184 
        910.032      0.00425067 
        911.193      0.00441532 
        911.613      0.00447636 
        912.034      0.00453822 
        912.465       0.0046025 
        912.875      0.00466426 
        913.037      0.00468895 
        913.241      0.00472021 
        913.284      0.00472681 
        913.478      0.00475675 
        913.531      0.00476495 
        913.755      0.00479963 
        913.822      0.00481012 
         914.08      0.00485062 
        914.165      0.00486403 
        914.499      0.00491706 
        914.575      0.00492922 
        915.071      0.00500899 
         915.54      0.00508567 
        915.609      0.00509689 
        915.643      0.00510251 
        915.677      0.00510814 
        915.741      0.00511872 
        915.813      0.00513066 
        916.085      0.00517599 
        916.429      0.00523386 
        916.858      0.00530672 
        917.118      0.00535142 
        917.196       0.0053649 
        917.378       0.0053965 
        917.899      0.00548767 
        917.952      0.00549703 
        918.287      0.00555663 
        918.602      0.00561302 
        919.251      0.00573127 
        920.215      0.00591097 
        921.882      0.00623405 
        921.999      0.00625736 
        922.143      0.00628614 
        922.405      0.00633867 
         922.81      0.00642091 
        923.621      0.00658811 
        925.001      0.00688276 
        925.242      0.00693576 
        925.484      0.00698885 
        925.564      0.00700654 
        925.966       0.0070956 
        926.164      0.00713886 
        926.369      0.00718353 
        927.173      0.00736301 
        927.276      0.00738623 
        928.182      0.00759483 
        928.917      0.00777271 
         928.98      0.00778876 
        929.089      0.00781707 
        929.261      0.00786256 
        929.317      0.00787739 
        929.543      0.00793887 
        929.655      0.00796818 
        929.769      0.00799686 
        929.827      0.00801141 
        929.883      0.00802548 
         929.91      0.00803227 
        929.939      0.00803956 
        929.954      0.00804333 
        929.968      0.00804684 
        929.982      0.00805036 
        929.996      0.00805391 
         930.01      0.00805743 
        930.024      0.00806098 
        930.038       0.0080645 
        930.052      0.00806802 
        930.081      0.00807537 
        930.137      0.00808951 
        930.201      0.00810575 
        930.247       0.0081174 
        930.249      0.00811791 
        930.251      0.00811841 
        930.301      0.00813107 
        930.326      0.00813713 
        930.329      0.00813789 
        930.402      0.00815598 
        930.478      0.00817402 
         930.63      0.00820741 
        930.931      0.00827068 
        931.229      0.00833556 
         931.49      0.00839339 
        931.534      0.00840345 
        931.838      0.00847426 
        932.447      0.00861836 
        933.265      0.00882191 
        933.403      0.00885712 
        933.432      0.00886416 
        933.542        0.008892 
        933.652      0.00892005 
        933.872      0.00897672 
        933.973      0.00900299 
        934.073      0.00902925 
        934.312      0.00909299 
        934.316      0.00909409 
        934.652      0.00918649 
        934.773      0.00922105 
         935.23      0.00935846 
        935.687       0.0095135 
        936.144       0.0096964 
        936.372      0.00979489 
        936.601      0.00988304 
        936.714      0.00991999 
        936.829      0.00995539 
        936.887      0.00997321 
        936.944      0.00999074 
        936.973      0.00999966 
        937.001       0.0100083 
        937.015       0.0100126 
        937.029       0.0100169 
        937.043       0.0100212 
        937.058       0.0100259 
        937.072       0.0100302 
        937.086       0.0100345 
        937.101       0.0100391 
        937.115       0.0100435 
        937.143       0.0100522 
          937.2       0.0100698 
        937.314       0.0101052 
        937.493       0.0101596 
        937.542       0.0101734 
        937.593       0.0101863 
        937.694        0.010208 
        937.788       0.0102241 
        937.894       0.0102405 
            938       0.0102542 
        938.212       0.0102803 
        938.359       0.0102994 
        938.556       0.0103291 
        938.636       0.0103417 
        938.914       0.0103921 
        939.231       0.0104562 
        939.271       0.0104647 
        939.986       0.0106278 
         940.74       0.0108205 
        941.452       0.0109794 
         942.25        0.011188 
        942.383       0.0112255 
        943.048       0.0114264 
        943.115       0.0114427 
        943.845       0.0116695 
        944.577       0.0119385 
        945.308       0.0122379 
        946.038       0.0125742 
        946.382       0.0127502 
         946.77        0.012968 
        947.158       0.0132187 
        947.547       0.0134997 
        947.787       0.0136889 
        947.935       0.0138073 
        948.083       0.0139228 
        948.213       0.0140165 
        948.314       0.0140835 
        948.379       0.0141224 
        948.546       0.0142074 
        948.661       0.0142583 
        948.777       0.0143081 
        948.835        0.014333 
        948.893        0.014358 
        948.922       0.0143704 
        948.951       0.0143829 
        948.966       0.0143894 
         948.98       0.0143954 
        948.994       0.0144015 
        949.009       0.0144079 
        949.023        0.014414 
        949.037         0.01442 
        949.052       0.0144265 
        949.066       0.0144325 
        949.095       0.0144451 
        949.153       0.0144702 
         949.23       0.0145036 
        949.258       0.0145158 
        949.269       0.0145205 
         949.28       0.0145253 
         949.33       0.0145471 
         949.36       0.0145602 
         949.43       0.0145904 
          949.5       0.0146192 
         949.64       0.0146689 
        949.795       0.0147056 
        949.879       0.0147196 
        949.921       0.0147239 
        949.963       0.0147283 
        950.047        0.014732 
        950.131       0.0147375 
        950.467        0.014742 
        950.888       0.0147709 
        951.308        0.014836 
        951.728       0.0149396 
        952.149       0.0150758 
          952.4       0.0151659 
        952.569       0.0152318 
        952.738       0.0152999 
        953.076       0.0154438 
        953.753       0.0157618 
        954.198        0.015985 
         954.43       0.0161019 
        955.106       0.0164633 
        956.014        0.016968 
         956.37       0.0171845 
        956.922       0.0175266 
         957.83       0.0181044 
        958.148       0.0183101 
        959.289        0.019068 
         960.43       0.0198616 
        961.192       0.0204277 
        961.571       0.0207056 
        962.712       0.0215528 
        964.231       0.0227004 
        966.507       0.0244561 
        966.767       0.0246622 
        967.269       0.0250637 
        968.032       0.0256798 
        968.668       0.0262112 
        968.979       0.0264714 
        969.297       0.0267359 
        969.453       0.0268703 
        969.927        0.027264 
        970.164        0.027466 
          970.4       0.0276376 
        970.637       0.0277635 
        970.756       0.0277934 
        970.874       0.0277925 
        970.992       0.0277532 
         971.11       0.0276377 
         971.23       0.0274228 
        971.348       0.0270886 
        971.466       0.0267393 
        971.535       0.0266773 
        971.567       0.0267208 
        971.584        0.026782 
        971.635       0.0270513 
        971.644       0.0271185 
        971.703        0.027634 
        971.732       0.0278508 
        971.762       0.0279693 
        971.778       0.0279911 
        971.792       0.0280028 
        971.806        0.028014 
        971.821       0.0280259 
        971.827       0.0280307 
        971.833       0.0280355 
        971.836       0.0280379 
        971.839       0.0280403 
        971.851       0.0280499 
        971.866       0.0280618 
         971.88        0.028073 
         971.91       0.0280925 
        971.969       0.0278876 
        972.037       0.0274028 
        972.087       0.0271844 
        972.137       0.0271371 
         972.15       0.0271553 
        972.199       0.0272715 
        972.237       0.0274202 
        972.324       0.0278381 
        972.348       0.0279622 
        972.499       0.0286274 
        972.649        0.029112 
        972.798        0.029463 
        972.948       0.0297443 
        973.097       0.0299794 
        973.396       0.0303781 
        973.645       0.0306629 
        973.696       0.0307174 
        973.746       0.0307715 
        973.846       0.0308783 
        974.046       0.0310865 
        974.446        0.031486 
        974.853       0.0318853 
        975.247       0.0322739 
         975.64       0.0326609 
        976.427        0.033435 
        976.695       0.0337008 
            978       0.0350124 
        979.305       0.0363438 
        979.906       0.0369687 
        981.915       0.0391094 
        983.923       0.0413308 
        985.245       0.0427703 
        985.932        0.043545 
        986.618       0.0443382 
         986.67       0.0443923 
        987.991        0.045904 
        989.312       0.0475656 
        990.633       0.0493029 
        992.671       0.0520917 
        993.275       0.0529437 
         993.88       0.0538083 
        995.088       0.0555704 
        996.565       0.0577953 
        997.506       0.0592548 
        997.574       0.0593616 
        997.806        0.059728 
        998.447       0.0607477 
        999.319       0.0621586 
        999.435        0.062344 
        1001.06       0.0650124 
        1002.69       0.0678097 
        1004.32       0.0707392 
        1005.84       0.0735349 
        1005.95       0.0737574 
        1007.58       0.0769612 
        1009.33       0.0805479 
        1011.07       0.0842993 
         1011.3       0.0848104 
        1012.82       0.0882128 
        1014.33       0.0917417 
        1015.38       0.0942651 
        1015.84       0.0954042 
        1017.36       0.0992036 
        1017.62       0.0998873 
        1019.05        0.103624 
        1019.33        0.104389 
        1021.04        0.109083 
        1022.04         0.11189 
        1022.54         0.11328 
        1023.04         0.11473 
        1023.29        0.115405 
        1023.54         0.11592 
        1023.79        0.116224 
        1023.99        0.116127 
        1024.04        0.116038 
        1024.09        0.115917 
        1024.19        0.115569 
        1024.24        0.115304 
        1024.39        0.114259 
        1024.54         0.11266 
        1024.59        0.112165 
        1024.69        0.111446 
        1024.79        0.112035 
        1024.85        0.113411 
        1024.87        0.113909 
        1024.89        0.114646 
        1024.91        0.115346 
        1024.95        0.116164 
        1024.98        0.116586 
        1024.99        0.116667 
        1025.01        0.116719 
        1025.03        0.116766 
        1025.04        0.116811 
        1025.06        0.116858 
        1025.07        0.116905 
        1025.09         0.11695 
         1025.1        0.116997 
        1025.13        0.117087 
         1025.2        0.116691 
        1025.27        0.114866 
        1025.32        0.113861 
        1025.37        0.113399 
        1025.47        0.113876 
        1025.52         0.11456 
        1025.57        0.115365 
        1025.62        0.116253 
        1025.72        0.117984 
        1025.77        0.118726 
        1025.92        0.120603 
        1026.07        0.122032 
        1026.22        0.123168 
        1026.37         0.12409 
        1026.52        0.124859 
        1026.67        0.125499 
        1026.86        0.126284 
        1026.96        0.126661 
        1027.07        0.127014 
        1027.28        0.127679 
        1027.69         0.12902 
        1027.98         0.12999 
        1028.53        0.131804 
         1028.8        0.132701 
        1029.07        0.133601 
        1029.34        0.134504 
        1029.88        0.136328 
        1030.96        0.140052 
        1033.08        0.147622 
        1033.13        0.147813 
        1033.19        0.148004 
        1033.23        0.148162 
        1033.29        0.148387 
         1033.5        0.149156 
        1033.91        0.150704 
        1034.75        0.153846 
        1036.27        0.159731 
        1037.78        0.165823 
        1039.17        0.171584 
        1039.26        0.171947 
         1039.3        0.172128 
        1039.34         0.17231 
         1039.5        0.172991 
        1039.52        0.173042 
        1039.86        0.174513 
        1040.55        0.177489 
        1041.92        0.183582 
        1044.35        0.194766 
        1046.77        0.206572 
        1049.03        0.218186 
        1049.19        0.219031 
        1049.35        0.219878 
        1049.67        0.221578 
        1050.31        0.225014 
        1051.59        0.232034 
        1053.95        0.245504 
        1054.15        0.246678 
        1054.35        0.247857 
        1054.75         0.25023 
        1054.95        0.251424 
        1055.55        0.255039 
        1057.15        0.264912 
        1059.36         0.27906 
        1061.56        0.293913 
        1063.16        0.305157 
        1063.76        0.309474 
        1064.36        0.313845 
        1065.56        0.322758 
        1066.56         0.33036 
        1067.96        0.341281 
        1069.36        0.352528 
        1069.96        0.357438 
        1072.16        0.375986 
        1074.36        0.395404 
        1076.56        0.415721 
        1078.16        0.431086 
        1078.69        0.436226 
        1078.76         0.43698 
        1078.98        0.439122 
        1079.36        0.442949 
        1080.57        0.455119 
        1080.71        0.456624 
        1082.44        0.474761 
        1084.17        0.493547 
         1085.9        0.513006 
        1087.64         0.53316 
        1089.32        0.553429 
        1089.37        0.554029 
        1089.42        0.554654 
        1089.52        0.555883 
        1089.72        0.558349 
        1090.12        0.563306 
        1090.67        0.570193 
        1090.92        0.573347 
        1092.52        0.593915 
        1094.37        0.618529 
        1096.22        0.644067 
        1096.77         0.65184 
        1098.07         0.67056 
        1099.37        0.689771 
        1099.57        0.692775 
        1101.97        0.729745 
        1104.37        0.768493 
        1106.78        0.809101 
        1108.98        0.848026 
        1109.18        0.851645 
        1109.38        0.855273 
        1109.78        0.862571 
        1109.98        0.866241 
        1110.58        0.877334 
        1112.18        0.907546 
        1114.38        0.950624 
        1116.58        0.995546 
        1118.18         1.02942 
        1118.68          1.0403 
        1118.78         1.04238 
        1119.38          1.0555 
        1120.08          1.0709 
        1121.47         1.10231 
        1123.78         1.15623 
        1124.25         1.16767 
        1124.73         1.17921 
        1125.68         1.20259 
        1125.79         1.20526 
        1127.08          1.2375 
        1127.59         1.25057 
        1127.85         1.25721 
        1129.38         1.29742 
        1129.77         1.30766 
        1131.69         1.35995 
        1133.62         1.41413 
        1135.54         1.47028 
        1137.46         1.52846 
        1139.39         1.58873 
        1141.31          1.6511 
        1142.08          1.6766 
        1143.23          1.7155 
           1144         1.74188 
        1144.39         1.75518 
         1146.7         1.83674 
        1149.39         1.93582 
        1149.77         1.95027 
        1152.08         2.03892 
        1154.39         2.12997 
        1158.62         2.30111 
           1159         2.31639 
        1159.01         2.31672 
        1159.39         2.33238 
        1160.16         2.36376 
         1161.7         2.42594 
        1164.39         2.53454 
        1169.39         2.73046 
         1171.9         2.82599 
        1173.15         2.87578 
         1174.4         2.92898 
        1175.65          2.9873 
         1176.9         3.05215 
        1177.86         3.10683 
        1178.15         3.12367 
         1179.4         3.19999 
        1180.94         3.29892 
        1182.47         3.40175 
        1182.86         3.42814 
        1184.01         3.50775 
        1185.17         3.58751 
        1185.56         3.61456 
        1187.48         3.75034 
         1189.4         3.88948 
        1192.09         4.09174 
        1193.24         4.18262 
        1194.03         4.24574 
         1194.4         4.27533 
        1196.72         4.46511 
         1196.9         4.48035 
         1199.4         4.69203 
         1201.9         4.91675 
         1204.4         5.16126 
         1206.9         5.42575 
        1208.48         5.59835 
         1209.4         5.70048 
        1210.33         5.80252 
        1211.64          5.9459 
        1212.16         6.00201 
        1212.69         6.05771 
        1213.61         6.15586 
        1213.74         6.16993 
        1213.81         6.17672 
        1213.88         6.18404 
        1214.14         6.21231 
        1214.17         6.21599 
        1214.47         6.24809 
        1214.62         6.26421 
        1214.76         6.28036 
        1214.84         6.28846 
        1214.91         6.29654 
        1214.95         6.30059 
        1214.98         6.30464 
           1215         6.30675 
        1215.02          6.3087 
        1215.04         6.31067 
        1215.06         6.31278 
        1215.08         6.31473 
         1215.1         6.31671 
        1215.11         6.31881 
        1215.13         6.32079 
        1215.17         6.32484 
        1215.24         6.33298 
        1215.39         6.34928 
        1215.64         6.37649 
        1215.69         6.38202 
        1215.74         6.38755 
         1215.8         6.39399 
        1215.84         6.39867 
        1216.04         6.42091 
        1216.06         6.42393 
        1216.28         6.44793 
        1216.76         6.50225 
        1217.46         6.58145 
        1218.32         6.67852 
        1218.86         6.73966 
        1218.98         6.75301 
        1219.41         6.79806 
        1219.83         6.84079 
         1220.1         6.86806 
        1220.67         6.92203 
        1222.36         7.07414 
        1224.62         7.28664 
        1226.88         7.52374 
        1228.86          7.7543 
        1229.13         7.78751 
        1229.41          7.8209 
        1229.74         7.86202 
        1229.96         7.88914 
        1230.18         7.91637 
