# Koester WD models
# teff = 5500 K (value for the effective temperature for the model. Temperatures are given in K)
# logg = 7 log(cm/s2) (value for Log(G) for the model.)
#
# column 1: WAVELENGTH (ANGSTROM), Wavelength in Angstrom
# column 2: FLUX (ERG/CM2/S/A), Flux in erg/cm2/s/A
         899.23      0.00253615 
        900.342      0.00263321 
        900.899      0.00268311 
        901.455      0.00273371 
        902.567      0.00283776 
        904.235      0.00300065 
        905.903      0.00317219 
        907.571       0.0033528 
        909.191      0.00353728 
        909.237      0.00354268 
        909.239       0.0035429 
        909.241      0.00354312 
        909.291      0.00354899 
        909.391      0.00356071 
        909.591      0.00358431 
        909.871      0.00361758 
        909.952      0.00362716 
        909.992      0.00363193 
        910.032      0.00363674 
        910.192      0.00365597 
        910.272      0.00366561 
        910.512      0.00369473 
        910.783      0.00372785 
        911.153      0.00377337 
        912.034      0.00388408 
        913.037      0.00401376 
        913.241      0.00404065 
        913.284      0.00404634 
        913.478       0.0040721 
        913.531      0.00407917 
        913.755      0.00410901 
        913.822      0.00411803 
         914.08      0.00415287 
        914.165      0.00416443 
        914.499      0.00421008 
        914.575      0.00422054 
        915.071      0.00428919 
         915.54      0.00435522 
        915.609      0.00436487 
        915.643       0.0043697 
        915.677      0.00437454 
        915.741      0.00438365 
        915.813      0.00439393 
        916.085      0.00443298 
        916.429       0.0044828 
        916.858      0.00454636 
        917.118      0.00458437 
        917.196      0.00459565 
        917.378      0.00462282 
        917.899      0.00470843 
        917.952      0.00471732 
        918.276      0.00476181 
        918.602      0.00480928 
        918.927      0.00486366 
        919.251      0.00493393 
        919.414      0.00496708 
        919.576      0.00499105 
        919.587       0.0049923 
        919.739      0.00500522 
        919.901       0.0050181 
        920.215      0.00506594 
        920.373      0.00509161 
         920.53      0.00512083 
        920.687      0.00516292 
        920.844      0.00521165 
        921.001      0.00525821 
        921.158      0.00529764 
        921.315      0.00532824 
        921.473      0.00534954 
         921.63      0.00536169 
        921.787      0.00536691 
        921.798      0.00536707 
         921.95      0.00537153 
        922.101      0.00538422 
        922.253      0.00540816 
        922.355      0.00542578 
        922.405      0.00543448 
        922.455      0.00544319 
        922.555      0.00546065 
          922.7      0.00548802 
        922.755      0.00550096 
         922.81      0.00551601 
         922.92      0.00555129 
         923.14      0.00563105 
        923.361      0.00570821 
        923.581      0.00577554 
        923.801      0.00583086 
        924.021      0.00587299 
        924.241      0.00590154 
        924.462      0.00591681 
        924.682      0.00592093 
        924.902       0.0059198 
        925.122      0.00593136 
        925.201      0.00594242 
        925.343      0.00596815 
        925.484      0.00599498 
        925.625       0.0060219 
        925.766      0.00604995 
        925.907      0.00608728 
        926.048      0.00613732 
        926.189      0.00619481 
        926.216      0.00620647 
        926.293      0.00623879 
        926.331      0.00625475 
        926.369      0.00627093 
        926.521      0.00633389 
        926.825      0.00645048 
        927.129      0.00655101 
        927.434      0.00663687 
        927.738      0.00670771 
        927.902      0.00673966 
        928.042      0.00676335 
        928.182      0.00678364 
        928.463      0.00681314 
        928.743       0.0068296 
        928.957      0.00683111 
        929.023      0.00683036 
        929.089      0.00682894 
        929.101      0.00682857 
        929.181       0.0068269 
        929.221       0.0068259 
        929.261      0.00682461 
        929.301      0.00682395 
        929.317      0.00682379 
        929.422      0.00682395 
        929.543      0.00682954 
        929.655      0.00684314 
        929.769      0.00686463 
        929.827      0.00687704 
        929.883      0.00688917 
         929.91      0.00689504 
        929.939      0.00690133 
        929.954      0.00690459 
        929.968      0.00690764 
        929.982      0.00691066 
        929.996       0.0069137 
         930.01      0.00691675 
        930.024       0.0069198 
        930.038      0.00692284 
        930.052      0.00692589 
        930.081      0.00693224 
        930.137      0.00694446 
        930.201      0.00695844 
        930.247      0.00696862 
        930.249      0.00696906 
        930.251      0.00696953 
        930.301      0.00698112 
        930.326      0.00698706 
        930.329      0.00698781 
        930.402      0.00700817 
        930.478       0.0070333 
         930.48      0.00703381 
         930.63      0.00709488 
        930.781      0.00716563 
        930.931      0.00723952 
        931.232      0.00738661 
        931.788      0.00762986 
        931.832      0.00764767 
        931.835      0.00764887 
        931.838      0.00765006 
        931.888      0.00767001 
        931.988      0.00770909 
        932.188      0.00778496 
        932.589      0.00792457 
        932.989      0.00805046 
        933.347      0.00815152 
        933.375      0.00815894 
        933.377      0.00815947 
        933.389      0.00816264 
        933.403      0.00816632 
        933.432      0.00817361 
         933.46      0.00818083 
        933.542       0.0082016 
        933.652      0.00822852 
        933.872       0.0082791 
        933.973      0.00830081 
        934.073      0.00832136 
        934.312       0.0083665 
        934.652      0.00842069 
        934.941      0.00845666 
         935.23      0.00848334 
        935.473      0.00849663 
         935.52      0.00849782 
        935.688      0.00850244 
        935.809      0.00850216 
        936.144      0.00849396 
        936.372      0.00849006 
        936.601      0.00850665 
        936.714      0.00852722 
        936.829      0.00855559 
        936.887      0.00857089 
        936.944      0.00858604 
        936.973      0.00859376 
        937.001      0.00860121 
        937.015      0.00860495 
        937.029      0.00860866 
        937.043      0.00861239 
        937.058      0.00861638 
        937.072      0.00862012 
        937.086      0.00862386 
        937.101      0.00862788 
        937.115      0.00863162 
        937.143       0.0086391 
          937.2      0.00865433 
        937.314      0.00868496 
        937.493      0.00873941 
        937.542      0.00875794 
        937.593      0.00877874 
        937.694      0.00882574 
        937.788      0.00887465 
        937.894      0.00893431 
            938      0.00899661 
        938.212        0.009123 
        938.359      0.00921093 
        938.556      0.00932374 
        938.636      0.00936911 
        938.914      0.00952075 
        939.271      0.00970639 
        939.986       0.0100522 
         940.58       0.0103198 
         940.66       0.0103548 
        940.675       0.0103613 
          940.7       0.0103722 
         940.74       0.0103895 
        940.901        0.010458 
        941.221        0.010592 
        941.269       0.0106115 
        941.861       0.0108478 
        942.455       0.0110698 
        943.048       0.0112767 
         943.16        0.011314 
         943.64       0.0114673 
        943.696       0.0114844 
        944.234       0.0116407 
         944.77       0.0117821 
        945.308       0.0119073 
        945.605       0.0119699 
        945.845       0.0120157 
        946.382       0.0121027 
         946.77       0.0121504 
        947.158       0.0121829 
        947.547       0.0121969 
        947.787       0.0121951 
        947.935       0.0121929 
        948.083       0.0121922 
        948.213       0.0121948 
        948.314        0.012202 
        948.379       0.0122093 
        948.546       0.0122425 
        948.661       0.0122778 
        948.777       0.0123196 
        948.835       0.0123412 
        948.893       0.0123628 
        948.922       0.0123736 
        948.951       0.0123844 
        948.966         0.01239 
         948.98       0.0123952 
        948.994       0.0124004 
        949.009        0.012406 
        949.023       0.0124112 
        949.037       0.0124165 
        949.052       0.0124221 
        949.066       0.0124273 
        949.095       0.0124382 
        949.153       0.0124599 
         949.23       0.0124888 
        949.258       0.0124994 
        949.269       0.0125035 
         949.28       0.0125077 
         949.33       0.0125267 
         949.36       0.0125384 
         949.43       0.0125672 
          949.5       0.0125993 
         949.64       0.0126754 
        949.795       0.0127765 
        949.879       0.0128378 
        949.921       0.0128689 
        949.963       0.0129017 
        950.047       0.0129676 
        950.131        0.013034 
        950.467       0.0133057 
        950.888       0.0136333 
        951.728       0.0142483 
          952.4       0.0147148 
        952.569       0.0148305 
        952.738       0.0149455 
        953.076       0.0151742 
        953.753       0.0156298 
        954.198       0.0159308 
        955.106       0.0165437 
        956.014       0.0171625 
         956.37       0.0174063 
         957.83       0.0184201 
        958.148        0.018644 
        959.289       0.0194553 
         960.43       0.0202807 
        961.192       0.0208426 
        962.712       0.0219855 
        964.231        0.023162 
         965.75       0.0243701 
        966.507       0.0249828 
        966.767       0.0251943 
        967.269        0.025603 
        968.032       0.0262192 
        968.668       0.0267163 
        969.297       0.0271656 
        969.611        0.027354 
        969.927       0.0274946 
        970.084       0.0275362 
        970.242       0.0275515 
        970.399        0.027531 
        970.556       0.0274607 
        970.713       0.0273277 
        970.824       0.0271884 
        970.867       0.0271234 
         970.87       0.0271178 
        970.874       0.0271121 
        970.924       0.0270255 
        971.024       0.0268244 
        971.101       0.0266443 
        971.225       0.0263107 
        971.348       0.0259219 
        971.357       0.0258917 
        971.471        0.025474 
        971.585       0.0249568 
        971.653       0.0245835 
        971.695       0.0243576 
        971.699       0.0243391 
        971.703       0.0243215 
        971.732       0.0242191 
        971.744       0.0241962 
        971.753       0.0241861 
        971.762       0.0241828 
        971.778       0.0241874 
        971.792       0.0241965 
        971.806       0.0242063 
        971.821       0.0242166 
        971.827       0.0242208 
        971.833       0.0242249 
        971.836        0.024227 
        971.839       0.0242291 
        971.851       0.0242374 
        971.866       0.0242478 
         971.88       0.0242575 
         971.91       0.0242816 
        971.969       0.0244763 
        972.037       0.0249327 
        972.087        0.025281 
        972.137       0.0256031 
         972.15       0.0256826 
        972.237        0.026178 
        972.324        0.026625 
        972.499       0.0274411 
        972.548       0.0276532 
        972.673       0.0281553 
        972.798       0.0286054 
        972.923       0.0290005 
        973.048       0.0293509 
        973.173       0.0296632 
        973.423       0.0301978 
        973.601       0.0305277 
        973.673        0.030652 
        973.746       0.0307716 
         973.89       0.0310003 
        974.178       0.0314213 
        974.754       0.0321784 
        975.022       0.0325029 
        975.331       0.0328695 
         975.64       0.0332242 
        975.686       0.0332767 
        976.259       0.0339239 
        977.495       0.0353168 
        979.305       0.0373787 
        981.114       0.0394983 
        981.924       0.0404709 
        982.924       0.0416971 
        983.923       0.0429531 
        985.227       0.0446376 
        985.923       0.0455575 
        986.618       0.0464924 
        986.706       0.0466118 
        988.009       0.0484094 
        989.312       0.0502661 
        989.957       0.0512048 
        991.918       0.0541554 
         993.88       0.0572562 
        995.841       0.0605033 
        997.158       0.0627731 
        997.574       0.0635057 
        997.802       0.0639104 
        997.806       0.0639173 
        998.447        0.065064 
        999.319       0.0666536 
        999.435       0.0668679 
        1001.06       0.0699366 
        1002.69       0.0731253 
        1004.32       0.0764381 
        1005.84       0.0796296 
        1005.95       0.0798791 
        1007.58        0.083452 
        1009.33       0.0874296 
        1011.07       0.0915473 
         1011.3       0.0921068 
        1012.82       0.0958192 
        1014.33       0.0997163 
        1015.38        0.102516 
        1015.84        0.103794 
        1017.36        0.107858 
        1017.62        0.108659 
        1018.48        0.110898 
        1019.33        0.113201 
        1020.19        0.115251 
        1020.62        0.116179 
        1021.04        0.116992 
        1021.47        0.117644 
         1021.9        0.118093 
        1022.33        0.118239 
        1022.47         0.11815 
        1022.76        0.117899 
        1023.04        0.117282 
        1023.19        0.116889 
        1023.33         0.11645 
        1023.47        0.115676 
        1023.62        0.114915 
        1023.76        0.114126 
        1023.76        0.114109 
         1023.9        0.113194 
        1024.04        0.112158 
         1024.1        0.111696 
        1024.32        0.109921 
        1024.43        0.108956 
        1024.54        0.107846 
        1024.65        0.106526 
        1024.67        0.106302 
        1024.73         0.10539 
        1024.76        0.104887 
        1024.79        0.104346 
        1024.85         0.10319 
        1024.91        0.102058 
        1024.95        0.101689 
        1024.98        0.101571 
        1024.99        0.101584 
        1025.01        0.101621 
        1025.03        0.101662 
        1025.04        0.101701 
        1025.06        0.101742 
        1025.07        0.101784 
        1025.09        0.101823 
         1025.1        0.101864 
        1025.13        0.101947 
         1025.2        0.102467 
        1025.27        0.104096 
        1025.32        0.105317 
        1025.37        0.106512 
        1025.47        0.108603 
        1025.52        0.109547 
        1025.57        0.110433 
        1025.62        0.111276 
        1025.72        0.112872 
        1025.77        0.113641 
        1025.92        0.115783 
        1026.07        0.117845 
        1026.37        0.121795 
        1026.67        0.125276 
        1026.86        0.127513 
        1026.96        0.128502 
        1027.07        0.129474 
        1027.28        0.131374 
        1027.69        0.134699 
        1028.11        0.137589 
        1028.53        0.140118 
        1028.82        0.141749 
        1028.94        0.142414 
        1029.07        0.143067 
        1029.25        0.144034 
         1029.3         0.14425 
        1029.32        0.144358 
        1029.34        0.144465 
        1029.42        0.144874 
        1029.59        0.145683 
        1029.93        0.147283 
         1030.6        0.150412 
         1030.7        0.150878 
        1031.94        0.156297 
        1033.19        0.161545 
        1035.08        0.169544 
        1035.56        0.171642 
        1035.67        0.172134 
        1036.27        0.174765 
        1037.45         0.18008 
        1039.34         0.18873 
        1041.24        0.197627 
        1041.91        0.200876 
        1043.13        0.206875 
        1044.35        0.213031 
        1046.78        0.225831 
        1049.09        0.238579 
        1049.22        0.239305 
        1049.35        0.240032 
        1049.61        0.241503 
        1050.12        0.244469 
        1051.14        0.250498 
        1052.03        0.255834 
        1053.19        0.262957 
        1053.99        0.267973 
        1054.35        0.270258 
        1056.67        0.285407 
        1059.36        0.303861 
        1059.71        0.306401 
        1062.04        0.323245 
        1064.36        0.340907 
        1066.68         0.35942 
        1068.64        0.375753 
        1068.68        0.376093 
           1069        0.378823 
        1069.36        0.381917 
        1070.08        0.388247 
        1071.52        0.401194 
        1074.36        0.427875 
        1075.04        0.434495 
         1077.2        0.456156 
        1079.36        0.478807 
        1080.61         0.49214 
        1081.53        0.502187 
        1082.44        0.512416 
        1082.65        0.514747 
        1084.28        0.533436 
         1085.9        0.552732 
        1088.95        0.590557 
        1089.16        0.593218 
        1089.37        0.595891 
        1089.78        0.601326 
        1090.19        0.606616 
        1090.62        0.612334 
        1092.28        0.634894 
        1094.37        0.664359 
        1096.46        0.695052 
        1097.74        0.714386 
        1098.56        0.727021 
        1099.37        0.739858 
        1101.01        0.765876 
        1104.17        0.818671 
        1104.27        0.820402 
        1104.37        0.822136 
        1104.58        0.825611 
        1104.98        0.832607 
        1105.41        0.840188 
        1105.78        0.846753 
        1107.39        0.875706 
        1109.38        0.912567 
        1111.36        0.951736 
         1112.3         0.97095 
        1113.34        0.992417 
        1113.52         0.99623 
        1114.38         1.01431 
        1116.45         1.05942 
        1118.68            1.11 
        1119.38         1.12621 
        1120.08         1.14264 
        1121.47         1.17616 
        1123.78         1.23369 
        1124.25         1.24575 
        1124.73         1.25779 
        1125.68         1.28218 
        1125.79         1.28497 
        1127.08          1.3186 
        1127.59         1.33222 
        1127.85         1.33914 
        1129.38         1.38104 
        1129.77         1.39171 
        1131.69         1.44612 
        1133.62         1.50239 
        1135.54         1.56051 
        1139.39         1.68235 
        1142.08         1.77196 
        1143.23         1.81149 
           1144         1.83821 
        1144.39         1.85164 
         1146.7         1.93358 
        1149.39          2.0319 
        1154.39         2.21935 
        1159.39         2.41048 
        1164.39         2.60363 
        1169.39         2.79411 
         1171.9         2.88527 
         1174.4         2.97672 
         1176.9         3.07468 
        1177.86         3.11539 
         1179.4         3.18441 
        1179.78         3.20248 
        1180.94         3.25906 
        1182.47         3.33892 
        1185.17         3.49053 
        1186.32         3.56021 
        1187.86         3.65663 
         1189.4         3.75672 
        1190.55         3.83331 
