# Koester WD models
# teff = 5500 K (value for the effective temperature for the model. Temperatures are given in K)
# logg = 7.25 log(cm/s2) (value for Log(G) for the model.)
#
# column 1: WAVELENGTH (ANGSTROM), Wavelength in Angstrom
# column 2: FLUX (ERG/CM2/S/A), Flux in erg/cm2/s/A
         899.23      0.00273645 
        901.358      0.00293949 
        902.738      0.00307844 
        903.486      0.00315645 
        904.235      0.00323628 
        905.733      0.00340159 
        907.232      0.00357469 
        908.219      0.00369319 
         908.45       0.0037215 
        908.729      0.00375596 
        909.241      0.00381977 
        910.032      0.00392042 
        911.193       0.0040727 
        911.613      0.00412915 
        912.034      0.00418636 
        912.465       0.0042458 
        912.875      0.00430295 
        913.037      0.00432578 
        913.241      0.00435469 
        913.284      0.00436081 
        913.478      0.00438852 
        913.531      0.00439609 
        913.755       0.0044282 
        913.822      0.00443788 
         914.08      0.00447536 
        914.165      0.00448777 
        914.499      0.00453684 
        914.575      0.00454805 
        915.071      0.00462188 
         915.54      0.00469282 
        915.609      0.00470318 
        915.643       0.0047084 
        915.677      0.00471358 
        915.741      0.00472338 
        915.813      0.00473444 
        916.085      0.00477638 
        916.429      0.00482995 
        916.858      0.00489737 
        917.118      0.00493874 
        917.196      0.00495121 
        917.378      0.00498043 
        917.899      0.00506522 
        917.952      0.00507399 
        918.287      0.00512893 
        918.602       0.0051808 
        919.251      0.00529575 
        920.215      0.00545657 
        921.882      0.00578609 
        921.999      0.00579074 
        922.143      0.00580516 
        922.405       0.0058525 
        922.607      0.00589061 
         922.81      0.00594298 
        923.012       0.0060153 
        923.215      0.00608737 
        923.418      0.00615224 
        923.621      0.00620923 
        923.823      0.00625821 
        924.026      0.00629889 
        924.228        0.006331 
        924.432      0.00635434 
        924.634      0.00636892 
        924.837      0.00637583 
        925.001      0.00637982 
        925.242       0.0064058 
        925.484      0.00645453 
        925.725      0.00650448 
        925.966      0.00657837 
        926.046      0.00661016 
        926.207      0.00667642 
        926.369      0.00674063 
        926.691       0.0068603 
        927.013      0.00696416 
        927.336      0.00705683 
        927.658      0.00713742 
        927.778      0.00716446 
         927.98      0.00720628 
        928.182      0.00724307 
        928.587      0.00730112 
        928.893      0.00732965 
        928.917        0.007331 
         928.98      0.00733505 
        928.991      0.00733568 
        929.089      0.00733986 
        929.261      0.00734517 
        929.317      0.00734621 
        929.543      0.00735412 
        929.655      0.00736669 
        929.769      0.00738843 
        929.827      0.00740166 
        929.883      0.00741469 
         929.91      0.00742098 
        929.939      0.00742773 
        929.954      0.00743125 
        929.968      0.00743448 
        929.982      0.00743775 
        929.996      0.00744105 
         930.01      0.00744432 
        930.024      0.00744759 
        930.038      0.00745085 
        930.052      0.00745412 
        930.081      0.00746091 
        930.137      0.00747404 
        930.201      0.00748905 
        930.247      0.00750005 
        930.249      0.00750055 
        930.251      0.00750102 
        930.301      0.00751378 
        930.326       0.0075205 
        930.329      0.00752132 
        930.402      0.00754463 
        930.478        0.007573 
         930.63      0.00763907 
        930.931      0.00777909 
        931.229       0.0079115 
        931.534      0.00803525 
        931.838      0.00815174 
        932.447      0.00836741 
        932.707      0.00845258 
        933.055      0.00855993 
        933.265      0.00862094 
        933.403      0.00865949 
        933.432      0.00866715 
        933.542      0.00869678 
        933.652      0.00872559 
        933.872      0.00878075 
        933.973      0.00880494 
        934.073      0.00882822 
        934.312      0.00888087 
        934.652      0.00894851 
         935.23      0.00904389 
        935.473       0.0090754 
        935.809      0.00911002 
        936.144      0.00912922 
        936.358      0.00913638 
        936.372      0.00913666 
        936.479      0.00914247 
        936.601      0.00915435 
        936.714      0.00917383 
        936.829      0.00920323 
        936.887      0.00921963 
        936.944      0.00923591 
        936.973      0.00924417 
        937.001      0.00925215 
        937.015      0.00925617 
        937.029      0.00926016 
        937.043      0.00926418 
        937.058      0.00926845 
        937.072      0.00927247 
        937.086      0.00927646 
        937.101      0.00928077 
        937.115      0.00928479 
        937.143       0.0092928 
          937.2      0.00930917 
        937.314      0.00934209 
        937.493      0.00940288 
        937.542      0.00942406 
        937.593      0.00944711 
        937.694      0.00949861 
        937.788        0.009549 
        937.894       0.0096085 
            938      0.00966772 
        938.212      0.00978392 
        938.359      0.00986356 
        938.556      0.00996391 
        938.636       0.0100048 
        938.914       0.0101417 
        939.231        0.010294 
        939.271        0.010313 
        939.986        0.010641 
         940.74       0.0109714 
        941.452       0.0112687 
        941.495       0.0112862 
         942.25        0.011584 
        943.048       0.0118778 
        943.845       0.0121478 
        943.978       0.0121904 
        944.643       0.0123928 
        945.308       0.0125775 
        945.972       0.0127444 
        946.115        0.012778 
        946.233       0.0128049 
        946.637       0.0128909 
        946.696       0.0129025 
        947.158        0.012989 
        947.621       0.0130579 
        948.083       0.0131013 
        948.314       0.0131213 
        948.546       0.0131605 
        948.661       0.0131959 
        948.777       0.0132401 
        948.835       0.0132631 
        948.893       0.0132863 
        948.922       0.0132978 
        948.951       0.0133094 
        948.966       0.0133154 
         948.98        0.013321 
        948.994       0.0133266 
        949.009       0.0133326 
        949.023       0.0133382 
        949.037       0.0133439 
        949.052       0.0133499 
        949.066       0.0133555 
        949.095       0.0133671 
        949.153       0.0133904 
         949.23       0.0134214 
        949.258       0.0134327 
        949.269       0.0134372 
         949.28       0.0134416 
         949.33       0.0134622 
         949.36        0.013475 
         949.43       0.0135069 
          949.5       0.0135431 
         949.64       0.0136283 
        949.795       0.0137357 
        949.879       0.0137982 
        949.921       0.0138289 
        949.963       0.0138616 
        950.047        0.013925 
        950.131       0.0139867 
        950.467       0.0142356 
        950.718       0.0144115 
        950.888       0.0145297 
        951.728       0.0150969 
        952.738       0.0157639 
        953.502       0.0162694 
        954.758       0.0171285 
        956.014       0.0180052 
        957.764       0.0192544 
        958.148       0.0195338 
        958.526       0.0198104 
        959.289       0.0203738 
         960.43       0.0212303 
        961.192       0.0218118 
        962.712       0.0229981 
        964.231        0.024219 
         965.75       0.0254755 
        966.507       0.0261127 
        966.767        0.026333 
        967.269       0.0267591 
        968.032        0.027402 
        968.668       0.0279222 
        969.297       0.0283953 
        969.611       0.0285959 
        969.927       0.0287494 
        970.084       0.0287978 
        970.242       0.0288196 
        970.399       0.0288065 
        970.556       0.0287441 
        970.713       0.0286187 
        970.824       0.0284819 
        970.867       0.0284173 
         970.87       0.0284117 
        970.874       0.0284062 
        970.924       0.0283218 
        971.024       0.0281244 
        971.101       0.0279484 
         971.11       0.0279265 
        971.225       0.0276251 
        971.348       0.0272713 
        971.467       0.0269306 
        971.585       0.0265549 
        971.644       0.0263354 
        971.703       0.0260919 
        971.732       0.0259928 
        971.762       0.0259474 
        971.778       0.0259505 
        971.792         0.02596 
        971.806       0.0259704 
        971.821       0.0259815 
        971.827       0.0259859 
        971.833       0.0259904 
        971.836       0.0259926 
        971.839       0.0259948 
        971.851       0.0260037 
        971.866       0.0260149 
         971.88       0.0260252 
         971.91        0.026052 
        971.969       0.0262612 
        972.037       0.0266471 
        972.087       0.0269111 
        972.137       0.0271566 
         972.15        0.027221 
        972.199       0.0274514 
        972.237       0.0276254 
        972.324       0.0280148 
        972.348       0.0281233 
        972.499       0.0287997 
        972.649       0.0294203 
        972.798         0.02997 
        972.948       0.0304463 
        973.097       0.0308552 
        973.247       0.0312143 
        973.396       0.0315322 
        973.645       0.0320009 
        973.696       0.0320876 
        973.746       0.0321721 
        973.846       0.0323364 
        974.046       0.0326443 
        974.446       0.0332069 
        974.846       0.0337275 
        974.853       0.0337363 
        975.247       0.0342248 
         975.64       0.0346936 
        976.427        0.035614 
        976.695       0.0359266 
            978       0.0374538 
        979.305       0.0390054 
        979.906        0.039732 
        981.915       0.0422095 
        983.923       0.0448004 
        985.245       0.0465738 
        985.932       0.0475172 
        986.618        0.048477 
         986.67       0.0485505 
        987.991       0.0504446 
        989.312       0.0524005 
        990.029       0.0534853 
        991.954       0.0564965 
         993.88       0.0596551 
        995.805       0.0629594 
        997.014       0.0651148 
        997.574       0.0661359 
         997.73       0.0664224 
        997.806       0.0665625 
        998.447       0.0677516 
        999.319       0.0693997 
        999.435       0.0696218 
        1001.06       0.0728052 
        1002.69       0.0761126 
        1004.32       0.0795486 
        1005.84       0.0828586 
        1005.95       0.0831174 
        1007.58       0.0868223 
        1009.33        0.090945 
        1011.07       0.0952132 
         1011.3       0.0957931 
        1012.82       0.0996419 
        1014.33         0.10366 
        1015.38        0.106546 
        1015.84        0.107862 
        1017.36        0.112078 
        1017.62          0.1129 
        1018.48         0.11524 
        1019.33        0.117645 
        1020.19        0.119817 
        1020.62        0.120808 
        1021.04        0.121694 
        1021.47        0.122428 
         1021.9        0.122949 
        1022.33        0.123165 
        1022.47        0.123099 
        1022.76        0.122877 
        1023.04         0.12229 
        1023.19        0.121917 
        1023.33        0.121507 
        1023.47        0.120738 
        1023.62         0.11999 
        1023.76        0.119215 
        1023.76        0.119199 
         1023.9        0.118294 
        1024.04        0.117272 
         1024.1        0.116819 
        1024.29         0.11536 
        1024.32        0.115105 
        1024.54        0.113282 
        1024.67         0.11212 
        1024.79        0.110774 
        1024.85        0.109987 
        1024.91        0.109097 
        1024.95        0.108735 
        1024.98        0.108585 
        1024.99        0.108592 
        1025.01         0.10863 
        1025.03        0.108674 
        1025.04        0.108715 
        1025.06         0.10876 
        1025.07        0.108804 
        1025.09        0.108846 
         1025.1        0.108889 
        1025.13        0.108978 
         1025.2        0.109564 
        1025.27        0.111013 
        1025.32        0.111956 
        1025.37        0.112862 
        1025.47        0.114512 
        1025.57        0.116051 
        1025.77        0.119009 
        1026.07        0.123217 
        1026.27        0.125906 
        1026.37        0.127229 
        1026.67        0.130766 
        1027.07        0.134989 
        1027.47        0.138543 
        1027.87        0.141643 
        1028.27        0.144272 
        1028.27        0.144291 
        1028.67         0.14662 
         1028.8         0.14733 
        1029.07        0.148776 
        1029.34        0.150188 
        1029.88        0.152832 
        1030.96        0.157918 
        1032.05        0.162703 
        1033.08        0.167179 
        1033.13        0.167405 
        1033.19        0.167631 
        1033.23        0.167818 
        1033.29        0.168084 
         1033.5        0.168981 
        1033.91        0.170774 
        1034.75        0.174407 
        1036.27        0.181262 
        1039.17        0.194857 
        1039.26        0.195269 
         1039.3        0.195476 
        1039.34        0.195682 
         1039.5        0.196446 
        1039.52        0.196503 
        1039.86        0.198155 
        1040.55        0.201496 
        1041.92        0.208319 
        1044.35        0.220807 
        1046.77        0.233953 
        1049.03        0.246851 
        1049.19        0.247787 
        1049.35        0.248727 
        1049.67         0.25063 
        1050.31        0.254474 
        1051.59         0.26232 
        1053.95        0.277357 
        1054.15        0.278666 
        1054.35        0.279981 
        1054.75        0.282628 
        1054.95         0.28396 
        1055.55        0.287989 
        1057.15        0.298982 
        1059.36        0.314725 
        1061.56        0.331089 
        1063.16         0.34347 
        1063.76        0.348217 
        1064.36        0.353024 
        1065.56        0.362813 
        1066.56        0.371154 
        1067.96         0.38312 
        1069.36        0.395429 
        1069.96        0.400874 
        1072.16        0.421429 
        1074.36         0.44293 
        1076.56        0.465421 
        1078.16        0.482429 
        1078.69        0.488119 
        1078.76        0.488954 
        1078.98        0.491326 
        1079.36        0.495561 
        1080.57        0.508856 
        1080.71        0.510499 
        1082.44        0.530291 
        1084.17        0.550765 
         1085.9        0.571946 
        1087.64        0.593858 
        1089.32        0.615878 
        1089.37        0.616528 
        1089.42        0.617216 
        1089.52        0.618564 
        1089.72        0.621272 
        1090.12        0.626713 
        1090.67        0.634269 
        1090.92        0.637731 
        1092.52        0.660287 
        1094.37        0.687271 
        1096.22        0.715243 
        1096.77        0.723754 
        1098.07        0.744237 
        1099.37        0.765242 
        1099.57        0.768487 
        1101.97        0.808407 
        1104.37        0.850184 
        1106.78        0.893912 
        1108.98        0.935774 
        1109.18        0.939666 
        1109.38        0.943574 
        1109.78         0.95161 
        1109.98        0.955654 
        1110.58        0.967871 
        1112.18         1.00115 
        1114.38          1.0486 
        1116.58         1.09807 
        1118.18         1.13537 
        1118.68         1.14735 
        1118.78         1.14964 
        1119.38         1.16408 
        1120.08         1.18104 
        1121.47         1.21562 
        1123.78         1.27498 
        1124.25         1.28744 
        1124.73         1.29986 
        1125.68         1.32504 
        1125.79         1.32792 
        1127.08         1.36263 
        1127.59         1.37671 
        1127.85         1.38385 
        1129.38          1.4271 
        1129.77         1.43811 
        1131.69         1.49426 
        1133.62         1.55233 
        1135.54          1.6123 
        1139.39         1.73799 
        1142.08         1.83041 
        1143.23          1.8712 
           1144         1.89876 
        1144.39         1.91261 
         1146.7         1.99712 
        1149.39         2.09851 
        1154.39         2.29182 
        1159.39         2.48883 
        1164.39         2.68784 
        1169.39          2.8851 
         1171.9         2.98088 
         1174.4         3.07842 
         1176.9         3.18429 
        1177.86         3.22833 
         1179.4         3.30313 
        1179.78         3.32258 
        1180.94         3.38337 
        1182.47         3.46876 
        1185.17         3.63014 
        1186.32         3.70409 
        1187.86         3.80591 
         1189.4         3.91119 
        1190.55         3.99174 
        1192.48         4.12937 
         1194.4         4.27068 
         1197.1         4.47693 
        1198.25         4.56844 
        1199.01         4.62986 
         1199.4         4.66184 
        1201.71         4.85153 
         1204.4         5.07254 
        1208.48         5.40533 
         1209.4         5.47897 
        1210.33         5.55072 
        1211.64         5.64642 
        1212.16         5.68251 
        1212.69         5.71918 
        1213.61          5.7946 
        1213.74         5.80727 
        1213.81         5.81349 
        1213.88         5.82024 
        1214.14         5.84679 
        1214.17         5.85024 
        1214.47         5.88056 
        1214.62         5.89576 
        1214.76           5.911 
        1214.84         5.91863 
        1214.91         5.92627 
        1214.95          5.9301 
        1214.98         5.93393 
           1215         5.93591 
        1215.02         5.93777 
        1215.04         5.93962 
        1215.06          5.9416 
        1215.08         5.94345 
         1215.1         5.94531 
        1215.11         5.94729 
        1215.13         5.94917 
        1215.17           5.953 
        1215.24         5.96067 
        1215.39         5.97606 
        1215.64         6.00173 
        1215.69         6.00695 
        1215.74         6.01219 
         1215.8         6.01825 
        1215.84         6.02265 
        1216.04         6.04367 
        1216.06          6.0465 
        1216.28         6.06921 
        1216.76         6.12196 
        1217.46         6.20804 
        1218.16         6.30656 
        1218.32         6.32899 
        1218.86         6.41092 
        1218.98         6.42983 
        1219.41         6.49373 
        1219.83         6.55814 
         1220.1          6.5992 
        1220.67         6.68374 
        1222.36         6.92891 
        1224.62         7.25199 
        1228.86         7.86224 
        1229.13         7.90249 
        1229.41         7.94295 
        1229.74         7.99114 
        1229.96         8.02322 
        1230.18         8.05539 
        1230.62         8.11945 
        1231.49         8.24835 
