# Koester WD models
# teff = 5000 K (value for the effective temperature for the model. Temperatures are given in K)
# logg = 7.5 log(cm/s2) (value for Log(G) for the model.)
#
# column 1: WAVELENGTH (ANGSTROM), Wavelength in Angstrom
# column 2: FLUX (ERG/CM2/S/A), Flux in erg/cm2/s/A
         899.23     0.000143718 
        900.638     0.000151393 
        902.048      0.00015945 
        902.677     0.000163183 
        903.456     0.000167907 
        904.235     0.000172758 
        905.793     0.000182857 
         907.35     0.000193506 
        908.573     0.000202276 
        908.907     0.000204732 
        909.241     0.000207216 
        909.784     0.000211325 
        909.908     0.000212268 
        910.032     0.000213214 
        910.279      0.00021512 
        910.772     0.000218978 
        911.485     0.000224665 
        911.759      0.00022689 
        911.881     0.000227878 
        912.034     0.000229135 
        912.582     0.000233686 
        913.037     0.000237522 
        913.241     0.000239264 
        913.284     0.000239633 
        913.478     0.000241303 
        913.531     0.000241762 
        913.755     0.000243698 
        913.822     0.000244283 
         914.08     0.000246547 
        914.165     0.000247298 
        914.499     0.000250266 
        914.575     0.000250946 
        915.071     0.000255419 
         915.54     0.000259725 
        915.609     0.000260354 
        915.643      0.00026067 
        915.677     0.000260986 
        915.741     0.000261581 
        915.813     0.000262253 
        916.085     0.000264804 
        916.429     0.000268064 
        916.858     0.000272172 
        917.118     0.000274696 
        917.196     0.000275457 
        917.378     0.000277242 
        917.899       0.0002824 
        917.952     0.000282931 
        918.287     0.000286307 
        918.602     0.000289506 
        919.251     0.000296223 
        920.215      0.00030646 
        921.882     0.000324941 
        921.999     0.000326276 
        922.143     0.000327929 
        922.405     0.000330945 
         922.81     0.000335676 
        923.621     0.000345098 
        925.001     0.000362282 
        925.242     0.000365408 
        925.484     0.000368487 
        925.564     0.000369514 
        925.966     0.000374632 
        926.369     0.000378879 
        926.771     0.000383023 
        926.969     0.000385216 
        927.576      0.00039257 
        928.182     0.000401009 
        928.489     0.000405617 
        928.789     0.000410748 
        928.917     0.000413066 
         928.98     0.000414203 
        929.089     0.000416198 
        929.261      0.00041933 
        929.317     0.000420298 
        929.543     0.000424021 
        929.655     0.000425705 
        929.769     0.000427382 
        929.827     0.000428237 
        929.883     0.000429066 
         929.91     0.000429465 
        929.939     0.000429892 
        929.954     0.000430115 
        929.968     0.000430323 
        929.982      0.00043053 
        929.996     0.000430737 
         930.01     0.000430948 
        930.024     0.000431155 
        930.038     0.000431363 
        930.052      0.00043157 
        930.081        0.000432 
        930.137     0.000432836 
        930.201     0.000433791 
        930.247     0.000434479 
        930.249     0.000434507 
        930.251     0.000434539 
        930.301     0.000435287 
        930.326     0.000435645 
        930.329     0.000435689 
        930.402     0.000436779 
        930.478     0.000437885 
         930.63     0.000439933 
        930.931     0.000443373 
        931.229     0.000446568 
         931.49     0.000449452 
        931.534     0.000449983 
        931.838     0.000453687 
        931.968     0.000455361 
        932.447     0.000462015 
        932.925     0.000469313 
        933.265     0.000474732 
        933.403     0.000476969 
        933.432     0.000477425 
        933.542     0.000479228 
        933.652      0.00048105 
        933.872     0.000484751 
        933.973      0.00048646 
        934.073     0.000488166 
        934.312     0.000492335 
        934.316     0.000492404 
        934.652     0.000498477 
        934.773     0.000500786 
         935.23     0.000509865 
        935.687     0.000519755 
        936.144     0.000530194 
        936.372     0.000535183 
        936.601     0.000539694 
        936.714      0.00054179 
        936.829     0.000543907 
        936.887     0.000544978 
        936.944     0.000546034 
        936.973     0.000546571 
        937.001      0.00054709 
        937.015      0.00054735 
        937.029     0.000547608 
        937.043     0.000547869 
        937.058     0.000548148 
        937.072     0.000548406 
        937.086     0.000548667 
        937.101     0.000548946 
        937.115     0.000549207 
        937.143     0.000549728 
          937.2      0.00055079 
        937.314     0.000552923 
        937.493     0.000556276 
        937.542     0.000557183 
        937.593     0.000558113 
        937.694     0.000559854 
        937.788     0.000561403 
        937.894     0.000563021 
            938     0.000564557 
        938.212     0.000567482 
        938.359     0.000569439 
        938.556     0.000572109 
        938.636     0.000573259 
        938.914     0.000577362 
        939.271     0.000583039 
        939.986     0.000595954 
         940.58     0.000607722 
         940.66     0.000609362 
        940.675      0.00060967 
          940.7     0.000610185 
         940.74     0.000611011 
        940.787     0.000611995 
        940.901     0.000614351 
        941.221     0.000621058 
        941.861     0.000634753 
        943.048     0.000660608 
        943.457     0.000669627 
        944.382     0.000690299 
        945.308     0.000711734 
        946.233     0.000735001 
        947.158      0.00076172 
        947.621     0.000776457 
        948.083     0.000791358 
        948.314     0.000798282 
        948.546      0.00080465 
        948.661     0.000807719 
        948.777     0.000810817 
        948.835     0.000812369 
        948.893     0.000813924 
        948.922     0.000814703 
        948.951     0.000815482 
        948.966     0.000815887 
         948.98     0.000816264 
        948.994     0.000816641 
        949.009     0.000817043 
        949.023      0.00081742 
        949.037     0.000817797 
        949.052     0.000818203 
        949.066      0.00081858 
        949.095     0.000819365 
        949.153     0.000820933 
         949.23     0.000823019 
        949.258     0.000823779 
        949.269     0.000824077 
         949.28     0.000824376 
         949.33     0.000825736 
         949.36     0.000826553 
         949.43      0.00082846 
          949.5     0.000830367 
         949.64     0.000834115 
        949.795      0.00083802 
        949.879     0.000840021 
        949.921      0.00084096 
        949.963     0.000841912 
        950.047     0.000843782 
        950.131     0.000845582 
        950.467     0.000852446 
        950.888     0.000861214 
        951.728     0.000880981 
          952.4     0.000899284 
        952.569     0.000904207 
        952.738     0.000909249 
        953.076     0.000919541 
        953.753     0.000941149 
        954.198      0.00095598 
        955.106     0.000987553 
        956.014      0.00102022 
         956.37      0.00103339 
         957.83      0.00108856 
        958.148       0.0011008 
        959.289      0.00114542 
         960.43      0.00119143 
        961.192      0.00122299 
        962.712      0.00128756 
        964.231      0.00135449 
         965.75      0.00142444 
        966.507      0.00146035 
        966.767      0.00147287 
        967.269      0.00149724 
        968.032      0.00153482 
        968.668      0.00156666 
        968.979      0.00158238 
        969.297      0.00159855 
        969.927      0.00163046 
        970.401      0.00165375 
        970.638      0.00166441 
        970.874      0.00167333 
        970.992      0.00167665 
         971.11      0.00167857 
         971.23      0.00167802 
        971.348      0.00167406 
        971.535      0.00166361 
        971.567      0.00166367 
        971.584      0.00166419 
        971.635      0.00166903 
        971.644      0.00167055 
        971.703      0.00168394 
        971.732      0.00169106 
        971.762      0.00169613 
        971.778      0.00169753 
        971.792      0.00169832 
        971.806      0.00169907 
        971.821      0.00169987 
        971.827      0.00170019 
        971.833      0.00170051 
        971.836      0.00170067 
        971.839      0.00170083 
        971.851      0.00170146 
        971.866      0.00170227 
         971.88      0.00170301 
         971.91      0.00170432 
        971.969      0.00169925 
        972.037      0.00169089 
        972.087      0.00169063 
        972.137      0.00169498 
         972.15      0.00169656 
        972.237       0.0017104 
        972.324      0.00172555 
        972.499      0.00174975 
        972.548      0.00175538 
        972.673      0.00176761 
        972.798      0.00177828 
        973.048      0.00179677 
        973.351      0.00181688 
        973.548      0.00182931 
        973.746      0.00184152 
         974.14      0.00186565 
        974.217      0.00187034 
        974.821      0.00190723 
        974.928      0.00191379 
         975.64      0.00195772 
        977.063       0.0020478 
        979.305       0.0021966 
        981.547       0.0023551 
        983.653      0.00251337 
        983.788      0.00252384 
        983.923      0.00253435 
        984.194       0.0025555 
        984.734      0.00259822 
        985.011      0.00262037 
        985.815      0.00268555 
        986.618      0.00275221 
        987.139      0.00279618 
        988.225       0.0028901 
        989.312       0.0029869 
        991.486      0.00318944 
        993.439      0.00338218 
        993.659      0.00340454 
         993.88      0.00342707 
         994.32       0.0034725 
          995.2      0.00356505 
        995.477      0.00359452 
        996.962      0.00375697 
        997.574      0.00382589 
        997.806      0.00385235 
        998.447      0.00392611 
        999.319      0.00402875 
        999.435       0.0040426 
        1001.06      0.00424162 
        1002.69      0.00444966 
        1004.32      0.00466706 
        1005.84      0.00487767 
        1005.95      0.00489419 
        1007.58      0.00513141 
        1009.33      0.00539726 
        1011.07      0.00567548 
         1011.3      0.00571346 
        1012.82      0.00596676 
        1014.33      0.00623078 
        1015.38      0.00642032 
        1015.84      0.00650608 
        1017.36      0.00679175 
        1017.62      0.00684355 
        1019.05       0.0071251 
        1019.33      0.00718262 
        1021.04      0.00753436 
        1022.04      0.00774293 
        1022.54      0.00784704 
        1023.04      0.00794839 
        1023.54      0.00803849 
        1023.79      0.00807622 
        1024.04      0.00809918 
        1024.29      0.00810368 
        1024.54      0.00806874 
        1024.67      0.00803437 
        1024.79      0.00803117 
        1024.85      0.00806312 
        1024.91       0.0081229 
        1024.95      0.00815473 
        1024.98      0.00817599 
        1024.99      0.00818178 
        1025.01      0.00818592 
        1025.03       0.0081896 
        1025.04      0.00819305 
        1025.06       0.0081967 
        1025.07      0.00820037 
        1025.09       0.0082038 
         1025.1      0.00820747 
        1025.13      0.00821435 
         1025.2      0.00820364 
        1025.27      0.00816321 
        1025.32      0.00815404 
        1025.37      0.00816349 
        1025.47      0.00822001 
        1025.52      0.00825595 
        1025.57      0.00829415 
        1025.62      0.00833154 
        1025.72      0.00839694 
        1025.77      0.00842585 
        1025.92      0.00850175 
        1026.07      0.00856693 
        1026.37      0.00867975 
        1026.67      0.00877387 
        1026.86      0.00883306 
        1026.96      0.00886199 
        1027.07      0.00889064 
        1027.28      0.00894757 
        1027.69      0.00905878 
        1027.98      0.00913569 
        1028.53      0.00927879 
         1028.8      0.00935023 
        1029.07      0.00942198 
        1029.34      0.00949405 
        1029.88      0.00963894 
        1030.96      0.00993343 
        1033.08       0.0105296 
        1033.13       0.0105447 
        1033.19       0.0105598 
        1033.23       0.0105722 
        1033.29       0.0105899 
         1033.5       0.0106505 
        1033.91       0.0107726 
        1034.75       0.0110206 
        1036.27       0.0114865 
        1037.78       0.0119703 
        1039.17       0.0124292 
        1039.26       0.0124582 
         1039.3       0.0124727 
        1039.34       0.0124872 
         1039.5       0.0125413 
        1039.52       0.0125454 
        1039.86       0.0126624 
        1040.55       0.0128996 
        1041.92       0.0133863 
        1044.35       0.0142834 
        1046.77       0.0152355 
        1049.03       0.0161768 
        1049.19       0.0162455 
        1049.35       0.0163144 
        1049.67       0.0164531 
        1050.31       0.0167339 
        1051.59       0.0173086 
        1053.95       0.0184161 
        1054.15       0.0185129 
        1054.35       0.0186102 
        1054.75       0.0188061 
        1054.95       0.0189048 
        1055.55       0.0192037 
        1057.15       0.0200221 
        1059.36       0.0211999 
        1061.56       0.0224395 
        1063.16       0.0233825 
        1063.76       0.0237454 
        1064.36       0.0241134 
        1065.56       0.0248653 
        1066.56       0.0255082 
        1067.96        0.026434 
        1069.36       0.0273905 
        1069.96        0.027811 
        1072.16       0.0294037 
        1074.36       0.0310799 
        1076.56       0.0328435 
        1078.16       0.0341834 
        1078.69       0.0346326 
        1078.76       0.0346986 
        1078.98       0.0348861 
        1079.36       0.0352213 
        1080.57        0.036286 
        1080.71        0.036418 
        1082.44       0.0380108 
        1084.17        0.039667 
         1085.9       0.0413895 
        1087.64       0.0431802 
        1089.32       0.0449882 
        1089.37        0.045042 
        1089.42       0.0450979 
        1089.52       0.0452081 
        1089.72        0.045429 
        1090.12       0.0458739 
        1090.67       0.0464921 
        1090.92       0.0467755 
        1092.52       0.0486281 
        1094.37       0.0508539 
        1096.22       0.0531727 
        1096.77       0.0538805 
        1098.07       0.0555883 
        1099.37       0.0573451 
        1099.57       0.0576196 
        1101.97       0.0610078 
        1104.37       0.0645776 
        1106.78       0.0683378 
        1108.98       0.0719594 
        1109.18       0.0722975 
        1109.38       0.0726368 
        1109.78       0.0733216 
        1109.98       0.0736663 
        1110.58       0.0747096 
        1112.18       0.0775574 
        1114.38       0.0816359 
        1116.58         0.08591 
        1118.18       0.0891458 
        1118.68       0.0901879 
        1118.78       0.0903877 
        1119.38       0.0916453 
        1120.08       0.0931243 
        1121.47       0.0961481 
        1123.78         0.10136 
        1124.25        0.102465 
        1124.73         0.10358 
        1125.68        0.105842 
        1125.79        0.106102 
        1127.08        0.109232 
        1127.59        0.110504 
        1129.38        0.115069 
        1131.69         0.12119 
        1132.46        0.123298 
           1134        0.127606 
        1135.54        0.132051 
        1137.85        0.138978 
        1138.62        0.141364 
        1139.39        0.143786 
        1140.93        0.148741 
        1143.63        0.157796 
        1143.95          0.1589 
        1144.01        0.159108 
        1144.39         0.16043 
        1145.15        0.163104 
        1146.67        0.168566 
        1149.39        0.178732 
        1149.83        0.180421 
        1152.11        0.189396 
        1154.39        0.198718 
        1156.67        0.208392 
        1158.51        0.216431 
        1158.95        0.218382 
        1159.39        0.220354 
        1159.67        0.221609 
        1160.27        0.224312 
        1162.03        0.232383 
        1164.39        0.243519 
        1166.76        0.254987 
        1168.84        0.265335 
        1169.12        0.266755 
        1169.39        0.268177 
        1169.96        0.271034 
        1171.08        0.276781 
        1172.24        0.282851 
        1173.32        0.288648 
         1174.4        0.294671 
        1176.56        0.307498 
        1178.04        0.316936 
        1178.72        0.321441 
         1179.4        0.326016 
        1180.58        0.334193 
        1180.76        0.335447 
        1180.94        0.336706 
        1181.29        0.339242 
        1181.69        0.342085 
        1182.01        0.344347 
        1183.43         0.35473 
        1185.17        0.367802 
        1187.89         0.38902 
        1188.65        0.395058 
         1189.4        0.401169 
        1190.91         0.41366 
        1193.44        0.435481 
        1193.92        0.439763 
         1194.4         0.44408 
        1195.19        0.451183 
        1195.37        0.452826 
        1197.29        0.470739 
         1199.4        0.490981 
        1201.51        0.512108 
        1202.84        0.525991 
        1203.62        0.534448 
         1204.4        0.543024 
        1205.97        0.560614 
        1208.81         0.59367 
        1209.11        0.597192 
         1209.4        0.600738 
        1209.67        0.603927 
           1210        0.607873 
        1210.33        0.611844 
        1210.98        0.619811 
        1211.89        0.630961 
        1212.29        0.635846 
        1212.69        0.640762 
         1213.1        0.645852 
        1213.28        0.648111 
        1213.49        0.650687 
        1213.88         0.65555 
        1214.17        0.659301 
        1214.47        0.663068 
        1214.62        0.664959 
        1214.76        0.666856 
        1214.84        0.667805 
        1214.91        0.668757 
        1214.95        0.669231 
        1214.98        0.669709 
           1215        0.669954 
        1215.02        0.670187 
        1215.04        0.670419 
        1215.06        0.670661 
        1215.08        0.670893 
         1215.1        0.671126 
        1215.11        0.671371 
        1215.13        0.671603 
        1215.17        0.672081 
        1215.24        0.673039 
        1215.39        0.674955 
        1215.64        0.678154 
        1215.69        0.678804 
        1215.74        0.679457 
         1215.8        0.680214 
        1215.84        0.680764 
        1216.04        0.683381 
        1216.06        0.683736 
        1216.28        0.686564 
        1216.76        0.692963 
        1217.46        0.702306 
        1218.32        0.713836 
        1218.86        0.721272 
        1218.98        0.722962 
        1219.41        0.728683 
        1219.83        0.734382 
         1220.1        0.738073 
        1220.67        0.745685 
        1222.36        0.768176 
        1224.62        0.799268 
        1226.88        0.831935 
        1228.86        0.862267 
        1229.13        0.866602 
        1229.41        0.870966 
        1229.74        0.876278 
        1229.96        0.879819 
        1230.18        0.883372 
