# Koester WD models
# teff = 5500 K (value for the effective temperature for the model. Temperatures are given in K)
# logg = 9 log(cm/s2) (value for Log(G) for the model.)
#
# column 1: WAVELENGTH (ANGSTROM), Wavelength in Angstrom
# column 2: FLUX (ERG/CM2/S/A), Flux in erg/cm2/s/A
         899.23      0.00330964 
        901.358      0.00355361 
        902.738      0.00372053 
        903.486      0.00381421 
        904.235      0.00391006 
        905.733      0.00410851 
        907.232      0.00431627 
        908.219      0.00445839 
         908.45      0.00449238 
        908.729      0.00453373 
        909.241      0.00461022 
        910.032      0.00473096 
        911.193      0.00491351 
        911.613      0.00498122 
        912.034       0.0050498 
        912.465      0.00512105 
        912.875      0.00518953 
        913.037       0.0052169 
        913.241      0.00525155 
        913.284      0.00525887 
        913.478      0.00529208 
        913.531      0.00530115 
        913.755      0.00533961 
        913.822      0.00535123 
         914.08      0.00539613 
        914.165      0.00541098 
        914.499       0.0054698 
        914.575      0.00548324 
        915.071      0.00557168 
         915.54      0.00565666 
        915.609       0.0056691 
        915.643      0.00567532 
        915.677      0.00568154 
        915.741      0.00569326 
        915.813      0.00570651 
        916.085      0.00575675 
        916.429       0.0058209 
        916.858      0.00590161 
        917.118      0.00595115 
        917.196       0.0059661 
        917.378       0.0060011 
        917.899       0.0061021 
        917.952       0.0061125 
        918.287      0.00617851 
        918.602      0.00624099 
        919.251        0.006372 
        920.215      0.00657105 
        921.882      0.00692875 
        921.999      0.00695461 
        922.143      0.00698659 
        922.405      0.00704474 
         922.81      0.00713559 
        923.621      0.00731894 
        925.001      0.00764576 
        925.242      0.00770582 
        925.484      0.00776463 
        925.564      0.00778424 
        925.966      0.00788053 
        926.164      0.00792514 
        926.369      0.00797167 
        927.173      0.00816142 
        927.276      0.00818599 
        928.182      0.00841029 
        928.917      0.00860887 
         928.98       0.0086275 
        929.089      0.00866068 
        929.261      0.00871647 
        929.317      0.00873454 
        929.543      0.00881166 
        929.655      0.00884738 
        929.769      0.00888021 
        929.827      0.00889633 
        929.883      0.00891188 
         929.91      0.00891939 
        929.939      0.00892746 
        929.954      0.00893164 
        929.968      0.00893554 
        929.982      0.00893946 
        929.996      0.00894336 
         930.01      0.00894726 
        930.024      0.00895118 
        930.038      0.00895508 
        930.052      0.00895897 
        930.081      0.00896708 
        930.137      0.00898276 
        930.201      0.00900069 
        930.247      0.00901357 
        930.249      0.00901414 
        930.251      0.00901471 
        930.301       0.0090285 
        930.326      0.00903497 
        930.329      0.00903572 
        930.402       0.0090541 
        930.478      0.00907103 
         930.63      0.00909931 
        930.931      0.00915049 
        931.229      0.00920581 
        931.534      0.00926707 
        931.838      0.00933395 
        932.447      0.00943332 
        932.707      0.00948752 
        933.055      0.00956986 
        933.265      0.00962314 
        933.403      0.00965933 
        933.432      0.00966703 
        933.542      0.00969753 
        933.652      0.00972848 
        933.872      0.00979134 
        933.973      0.00982093 
        934.073      0.00985075 
        934.312      0.00992398 
        934.652       0.0100337 
        934.941       0.0101347 
         935.23       0.0102465 
        935.473        0.010348 
         935.52       0.0103687 
        935.809       0.0105118 
        936.144       0.0107031 
        936.358       0.0108309 
        936.372       0.0108394 
        936.479       0.0108998 
        936.601       0.0109601 
        936.714       0.0110061 
        936.829       0.0110464 
        936.887       0.0110661 
        936.944       0.0110855 
        936.973       0.0110954 
        937.001       0.0111049 
        937.015       0.0111097 
        937.029       0.0111144 
        937.043       0.0111192 
        937.058       0.0111243 
        937.072       0.0111291 
        937.086       0.0111339 
        937.101        0.011139 
        937.115       0.0111438 
        937.143       0.0111534 
          937.2       0.0111729 
        937.314        0.011212 
        937.493       0.0112688 
        937.542       0.0112811 
        937.593       0.0112915 
        937.694       0.0113058 
        937.788       0.0113127 
        937.894       0.0113179 
            938       0.0113198 
        938.212        0.011324 
        938.359       0.0113297 
        938.556       0.0113429 
        938.636       0.0113509 
        938.914       0.0113905 
        939.271       0.0114571 
        939.628       0.0115394 
        939.986       0.0116329 
         940.58       0.0118095 
         940.66       0.0118348 
        940.675       0.0118396 
          940.7       0.0118476 
         940.74       0.0118604 
        940.901        0.011912 
        941.221       0.0120195 
        941.861        0.012246 
        943.048       0.0126954 
         943.16       0.0127407 
        943.457       0.0128623 
        944.234        0.013189 
        944.382       0.0132527 
        945.308       0.0136572 
         945.77       0.0138739 
        946.233        0.014109 
        946.696       0.0143673 
        947.158       0.0146672 
        947.621       0.0150178 
        948.083       0.0154069 
        948.314       0.0155909 
        948.546       0.0157408 
        948.661          0.0158 
        948.777       0.0158554 
        948.835       0.0158829 
        948.893       0.0159104 
        948.922       0.0159242 
        948.951        0.015938 
        948.966       0.0159451 
         948.98       0.0159518 
        948.994       0.0159585 
        949.009       0.0159656 
        949.023       0.0159723 
        949.037        0.015979 
        949.052       0.0159861 
        949.066       0.0159928 
        949.095       0.0160066 
        949.153       0.0160344 
         949.23       0.0160713 
        949.258       0.0160847 
        949.269       0.0160899 
         949.28       0.0160952 
         949.33       0.0161192 
         949.36       0.0161335 
         949.43       0.0161656 
          949.5       0.0161954 
         949.64       0.0162421 
        949.795       0.0162746 
        949.879       0.0162848 
        949.921       0.0162898 
        949.963        0.016295 
        950.047       0.0163003 
        950.131       0.0163055 
        950.467        0.016331 
        950.888       0.0163905 
        951.308       0.0164934 
        951.728        0.016639 
        952.149       0.0168148 
          952.4       0.0169344 
        952.569       0.0170197 
        952.738       0.0171105 
        953.076       0.0172999 
        953.753       0.0177017 
        954.198       0.0179826 
         954.43       0.0181352 
        955.106       0.0185751 
        956.014       0.0191856 
         956.37       0.0194509 
        956.922         0.01987 
         957.83       0.0205759 
        958.148       0.0208264 
        959.289       0.0217295 
         960.43       0.0226568 
        961.192       0.0233051 
        962.712       0.0245686 
        964.231       0.0258316 
        966.507       0.0277976 
        966.767       0.0280257 
        967.269       0.0284677 
        968.032       0.0291435 
        968.668       0.0297132 
        968.979       0.0299881 
        969.297       0.0302626 
        969.453       0.0303942 
        969.927       0.0307631 
        970.164        0.030924 
          970.4       0.0310442 
        970.637       0.0310753 
        970.756       0.0310545 
        970.874       0.0309916 
        970.992       0.0308365 
         971.11       0.0306122 
         971.23       0.0302914 
        971.348       0.0299019 
        971.466       0.0296103 
        971.535       0.0296423 
        971.567       0.0297254 
        971.584       0.0297998 
        971.635       0.0300992 
        971.644       0.0301651 
        971.703       0.0306317 
        971.732        0.030817 
        971.762       0.0309209 
        971.778       0.0309431 
        971.792       0.0309558 
        971.806       0.0309681 
        971.821       0.0309813 
        971.827       0.0309865 
        971.833       0.0309918 
        971.836       0.0309945 
        971.839       0.0309971 
        971.851       0.0310076 
        971.866       0.0310208 
         971.88       0.0310331 
         971.91       0.0310555 
        971.969       0.0308992 
        972.037       0.0304836 
        972.087       0.0302567 
        972.137       0.0301593 
         972.15       0.0301564 
        972.237       0.0303259 
        972.324        0.030714 
        972.499       0.0316044 
        972.548       0.0318243 
        972.673       0.0323151 
        972.798       0.0327307 
        972.923       0.0330461 
        973.048        0.033332 
        973.298       0.0337907 
        973.351       0.0338752 
        973.548       0.0341896 
        973.746       0.0344642 
         974.14       0.0349559 
        974.217        0.035047 
        974.534       0.0354149 
        974.821       0.0357397 
        974.928       0.0358594 
         975.64       0.0366605 
        977.063        0.038274 
        979.305        0.040868 
        981.547       0.0435783 
        983.653       0.0462735 
        983.788       0.0464506 
        983.923       0.0466281 
        984.194       0.0469822 
        984.734       0.0476969 
        985.011       0.0480657 
        985.815       0.0491477 
        986.618       0.0502529 
        987.139       0.0509717 
        988.225       0.0525161 
        989.312       0.0541086 
        991.486        0.057428 
        993.439       0.0605649 
        993.659       0.0609277 
         993.88       0.0612925 
         994.32       0.0620282 
          995.2       0.0635239 
        995.477       0.0639999 
        996.962        0.066614 
        997.574       0.0677202 
        997.806       0.0681433 
        998.447       0.0693236 
        999.319       0.0709614 
        999.435       0.0711816 
        1001.06       0.0743439 
        1002.69       0.0776347 
        1004.32       0.0810565 
        1005.84       0.0843562 
        1005.95       0.0846144 
        1007.58       0.0883124 
        1009.33       0.0924348 
        1011.07       0.0967256 
         1011.3       0.0973096 
        1012.82        0.101194 
        1014.33        0.105217 
        1015.38        0.108092 
        1015.84         0.10939 
        1017.36          0.1137 
        1017.62        0.114482 
        1019.05        0.118693 
        1019.33        0.119546 
        1020.05        0.121681 
        1021.04        0.124669 
        1021.54        0.126154 
        1022.04         0.12758 
        1022.54        0.128834 
        1022.99        0.129643 
        1023.04         0.12971 
        1023.09        0.129774 
        1023.19        0.129863 
        1023.39         0.12994 
        1023.54        0.129814 
        1023.59        0.129731 
        1023.67        0.129534 
        1023.79        0.129277 
        1023.92         0.12874 
        1023.99        0.128384 
        1024.04        0.128074 
        1024.09        0.127712 
        1024.19        0.126971 
        1024.24        0.126584 
        1024.29        0.126159 
        1024.39        0.125171 
        1024.41        0.124929 
        1024.54        0.123631 
        1024.67        0.122947 
        1024.79        0.124035 
        1024.85        0.125429 
        1024.91        0.127157 
        1024.95         0.12785 
        1024.98        0.128222 
        1024.99        0.128302 
        1025.01        0.128358 
        1025.03         0.12841 
        1025.04        0.128459 
        1025.06        0.128511 
        1025.07        0.128562 
        1025.09        0.128611 
         1025.1        0.128663 
        1025.13        0.128762 
         1025.2        0.128483 
        1025.27        0.126983 
        1025.32        0.126043 
        1025.37        0.125462 
        1025.47        0.125488 
        1025.52        0.125991 
        1025.57        0.126659 
        1025.62         0.12748 
        1025.72        0.129214 
        1025.77        0.130089 
        1025.92        0.132432 
        1026.07        0.134556 
        1026.22         0.13641 
        1026.37        0.138065 
        1026.52        0.139426 
        1026.56        0.139833 
        1026.82        0.141799 
        1027.07        0.143397 
        1027.32        0.144827 
        1027.83        0.147348 
        1028.34        0.149534 
        1028.62        0.150681 
         1028.8        0.151418 
        1028.84          0.1516 
        1029.07        0.152505 
        1029.34        0.153605 
        1029.88        0.155791 
        1030.96        0.160191 
        1033.08        0.168926 
        1033.13        0.169145 
        1033.19        0.169364 
        1033.23        0.169545 
        1033.29        0.169802 
         1033.5        0.170681 
        1033.91         0.17245 
        1034.75        0.176037 
        1036.27        0.182758 
        1039.17        0.196264 
        1039.26        0.196677 
         1039.3        0.196884 
        1039.34        0.197091 
         1039.5        0.197859 
        1039.52        0.197917 
        1039.86        0.199579 
        1040.55        0.202944 
        1041.92        0.209835 
        1044.35        0.222469 
        1046.77         0.23579 
        1049.03         0.24888 
        1049.19        0.249831 
        1049.35        0.250785 
        1049.67        0.252708 
        1050.31        0.256592 
        1051.59        0.264524 
        1053.95        0.279736 
        1054.15        0.281061 
        1054.35        0.282392 
        1054.75        0.285071 
        1054.95        0.286419 
        1055.55        0.290498 
        1057.15        0.301635 
        1059.36        0.317587 
        1061.56        0.334278 
        1063.16         0.34691 
        1063.76        0.351758 
        1064.36        0.356665 
        1065.56        0.366662 
        1066.56        0.375182 
        1067.96        0.387415 
        1069.36         0.40001 
        1069.96        0.405536 
        1072.16        0.426399 
        1074.36        0.448233 
        1076.56        0.471079 
        1078.16        0.488351 
        1078.69        0.494125 
        1078.76        0.494977 
        1078.98        0.497383 
        1079.36        0.501684 
        1080.57        0.515303 
        1080.71        0.516984 
        1082.44        0.537269 
        1084.17         0.55827 
         1085.9        0.580023 
        1087.64        0.602539 
        1089.32        0.625171 
        1089.37        0.625843 
        1089.42        0.626544 
        1089.52         0.62792 
        1089.72        0.630681 
        1090.12        0.636235 
        1090.67        0.643948 
        1090.92        0.647479 
        1092.52        0.670507 
        1094.37        0.698056 
        1096.22        0.726625 
        1096.77        0.735321 
        1098.07        0.756247 
        1099.37        0.777708 
        1099.57        0.781044 
        1101.97         0.82213 
        1104.37        0.865163 
        1106.78        0.910217 
        1108.98        0.953348 
        1109.18         0.95736 
        1109.38        0.961384 
        1109.78        0.969552 
        1109.98        0.973661 
        1110.58        0.986077 
        1112.18          1.0199 
        1114.38         1.06811 
        1116.58         1.11838 
        1118.18         1.15627 
        1118.68         1.16844 
        1118.78         1.17077 
        1119.38         1.18545 
        1120.08         1.20267 
        1121.47          1.2378 
        1123.78          1.2981 
        1124.25         1.31082 
        1124.73          1.3236 
        1125.68         1.34949 
        1125.79         1.35246 
        1127.08         1.38816 
        1127.59         1.40263 
        1127.85         1.40998 
        1129.38         1.45447 
        1129.77          1.4658 
        1131.69         1.52358 
        1133.62         1.58335 
        1135.54         1.64512 
        1137.46         1.70893 
        1139.39         1.77513 
        1142.08         1.87139 
        1143.23         1.91394 
           1144         1.94276 
        1144.39         1.95726 
         1146.7         2.04607 
        1146.89         2.05358 
        1149.39         2.15306 
        1151.89         2.25444 
        1154.39         2.35978 
        1159.39         2.57325 
        1164.39         2.78664 
        1169.39          2.9931 
         1171.9         3.09474 
        1173.15          3.1481 
         1174.4         3.20571 
        1175.65         3.26776 
         1176.9         3.33521 
        1177.86          3.3916 
        1178.15         3.40894 
         1179.4         3.48773 
        1180.94         3.59128 
        1182.47          3.6997 
        1182.86         3.72719 
        1184.01         3.81151 
        1185.17         3.89677 
        1185.56         3.92564 
        1187.48         4.07075 
         1189.4         4.21972 
        1192.09         4.43621 
        1193.24         4.53332 
        1194.03         4.60077 
         1194.4         4.63247 
        1196.72         4.83557 
         1196.9         4.85191 
         1199.4         5.07886 
         1201.9         5.31887 
         1204.4         5.58057 
         1206.9          5.8624 
        1208.48          6.0502 
         1209.4         6.16267 
        1210.33         6.27653 
        1211.64         6.43913 
        1212.16         6.50241 
        1212.69         6.56417 
        1213.61         6.67054 
        1213.74         6.68575 
        1213.81         6.69307 
        1213.88         6.70095 
        1214.14         6.73149 
        1214.17         6.73545 
        1214.47         6.77013 
        1214.62         6.78751 
        1214.76         6.80494 
        1214.84         6.81367 
        1214.91         6.82241 
        1214.95         6.82678 
        1214.98         6.83117 
           1215          6.8334 
        1215.02         6.83554 
        1215.04         6.83768 
        1215.06         6.83991 
        1215.08         6.84204 
         1215.1         6.84418 
        1215.11         6.84644 
        1215.13         6.84858 
        1215.17         6.85298 
        1215.24         6.86174 
        1215.39         6.87933 
        1215.64         6.90868 
        1215.69         6.91468 
        1215.74         6.92065 
         1215.8         6.92759 
        1215.84         6.93262 
        1216.04         6.95665 
        1216.06         6.95988 
        1216.28          6.9858 
        1216.76         7.04442 
        1217.46         7.12975 
        1218.32         7.23176 
        1218.86         7.29324 
        1218.98         7.30662 
        1219.41         7.35111 
        1219.83         7.39317 
         1220.1         7.42032 
        1220.67         7.47476 
        1222.36         7.63699 
        1224.62         7.87547 
        1226.88         8.14354 
        1228.86         8.39971 
