# Koester WD models
# teff = 6500 K (value for the effective temperature for the model. Temperatures are given in K)
# logg = 7.25 log(cm/s2) (value for Log(G) for the model.)
#
# column 1: WAVELENGTH (ANGSTROM), Wavelength in Angstrom
# column 2: FLUX (ERG/CM2/S/A), Flux in erg/cm2/s/A
         899.23        0.121749 
        901.337        0.129539 
        902.653        0.134636 
        903.444        0.137784 
        904.235        0.140999 
        905.817        0.147638 
        907.398        0.154562 
        908.718        0.160568 
        908.979        0.161783 
        909.241        0.163005 
        909.495        0.164205 
        909.763        0.165476 
        910.032        0.166757 
        910.568        0.169346 
        911.247        0.172678 
         911.64        0.174634 
        912.034        0.176612 
        912.357        0.178251 
        912.821        0.180627 
        913.037        0.181747 
        913.241        0.182809 
        913.284        0.183033 
        913.478         0.18405 
        913.531        0.184328 
        913.755        0.185505 
        913.822        0.185859 
         914.08        0.187231 
        914.165        0.187686 
        914.499         0.18948 
        914.575         0.18989 
        915.071        0.192583 
         915.54        0.195171 
        915.609        0.195543 
        915.643        0.195733 
        915.677        0.195921 
        915.813        0.196688 
        915.949        0.198137 
        916.085        0.199487 
        916.221         0.19926 
        916.285        0.199345 
        916.357        0.199737 
        916.429        0.200145 
        916.574        0.200982 
        916.718        0.203507 
        916.862        0.206597 
        916.922        0.207056 
        917.006        0.206687 
        917.036        0.206305 
         917.15        0.204867 
        917.264        0.204927 
        917.378        0.205589 
        917.493        0.206253 
        917.607        0.207587 
        917.721        0.211115 
        917.835        0.215108 
        917.949        0.217572 
        918.063        0.217841 
        918.177        0.216122 
        918.291        0.213338 
        918.405        0.211831 
        918.438        0.211865 
         918.52        0.212314 
        918.602        0.212806 
        918.766        0.213834 
         918.93         0.21803 
        918.937         0.21834 
        919.094        0.225706 
        919.251        0.231865 
        919.409        0.234698 
        919.566        0.233655 
        919.723        0.229212 
         919.88        0.223746 
        920.037        0.221635 
        920.131        0.222156 
        920.173        0.222418 
        920.194        0.222549 
        920.215         0.22268 
        920.299        0.223206 
        920.468        0.225137 
        920.636        0.232645 
        920.804        0.242616 
        920.972        0.251392 
         921.14        0.257591 
        921.308        0.260436 
        921.477        0.259715 
        921.645        0.255515 
        921.813        0.248683 
        921.981        0.240835 
        922.149        0.235825 
         922.23        0.235633 
        922.318        0.236173 
        922.348        0.236372 
        922.405        0.236748 
        922.463        0.237136 
        922.579        0.237935 
        922.694        0.240217 
         922.81        0.245762 
        922.926        0.253202 
        923.041        0.261431 
        923.157        0.269522 
        923.272         0.27708 
        923.389        0.283877 
        923.504        0.289612 
         923.62        0.294274 
        923.735        0.297833 
        923.851        0.300262 
        923.966        0.301462 
        924.082        0.301412 
        924.197        0.300138 
        924.314          0.2977 
        924.429         0.29408 
        924.545        0.289317 
         924.66         0.28352 
        924.776        0.277023 
        924.891        0.270387 
        925.007        0.263873 
        925.122        0.258813 
        925.223        0.256712 
        925.238         0.25658 
        925.354        0.256985 
        925.484        0.257913 
        925.614        0.258845 
        925.744        0.260445 
        925.874        0.265656 
        926.004        0.274295 
        926.134         0.28456 
         926.16        0.286603 
        926.264        0.295254 
        926.369        0.303794 
        926.473        0.311976 
        926.577        0.319666 
        926.681        0.327005 
        926.785        0.333863 
        926.889        0.340096 
        926.993        0.345729 
        927.097        0.350787 
        927.201        0.355305 
        927.306        0.359244 
         927.41        0.362546 
        927.514        0.365213 
        927.618         0.36723 
        927.722          0.3686 
        927.826        0.369313 
        927.886        0.369426 
         927.93        0.369366 
        928.034        0.368738 
        928.182         0.36668 
        928.331         0.36325 
        928.479        0.358591 
        928.627        0.352609 
        928.775        0.345226 
        928.923        0.336813 
        929.015        0.331089 
        929.052        0.328667 
        929.065        0.327756 
         929.07         0.32742 
        929.089        0.326154 
        929.163        0.321042 
        929.261        0.314232 
        929.372        0.306833 
        929.458        0.301283 
        929.543        0.296546 
        929.659        0.291944 
        929.714        0.290823 
        929.769        0.290481 
        929.833        0.290776 
        929.876        0.291104 
        929.879        0.291134 
        929.883        0.291164 
         929.91         0.29138 
        929.927        0.291516 
        929.933        0.291564 
        929.939        0.291612 
        929.954        0.291732 
        929.968        0.291844 
        929.982        0.291956 
        929.996        0.292068 
         930.01         0.29218 
        930.024        0.292293 
        930.038        0.292405 
        930.052        0.292517 
        930.081         0.29275 
        930.137          0.2932 
        930.201        0.293736 
        930.247        0.294293 
        930.249         0.29432 
        930.251        0.294349 
        930.301        0.295458 
        930.326         0.29619 
        930.402        0.299502 
        930.478        0.304291 
         930.63        0.316308 
        930.633        0.316575 
        930.782        0.330056 
        930.931        0.344183 
         931.08         0.35806 
        931.229        0.371556 
        931.379        0.384509 
        931.528        0.396645 
        931.677        0.408303 
        931.788        0.416456 
        931.814          0.4183 
        931.826        0.419142 
        931.838        0.419978 
        931.888        0.423411 
        931.988        0.429987 
        932.188        0.442129 
        932.389        0.452839 
        932.589        0.462229 
        932.789        0.470221 
        932.989        0.476881 
        933.189        0.482222 
        933.347        0.485489 
        933.375        0.485982 
        933.377        0.486014 
        933.389        0.486218 
        933.403        0.486444 
        933.432        0.486884 
         933.46        0.487292 
        933.542        0.488342 
        933.652        0.489378 
        933.872         0.49018 
        934.092        0.489237 
        934.312         0.48652 
        934.413        0.484635 
        934.533        0.481876 
        934.652        0.478571 
        934.771        0.474713 
         934.89         0.47024 
        935.009        0.465169 
        935.026          0.4644 
        935.128        0.459521 
         935.23        0.454174 
        935.434        0.442091 
        935.639         0.42873 
        935.843        0.413622 
         935.95        0.405419 
        936.047        0.397697 
        936.076        0.395313 
        936.144        0.389627 
        936.207        0.384565 
        936.338        0.374176 
        936.372        0.371584 
        936.469        0.364484 
        936.486        0.363319 
        936.601          0.3567 
        936.715        0.352688 
        936.829        0.351852 
        936.887        0.352267 
        936.944        0.352801 
        936.973        0.353077 
        937.001        0.353344 
        937.015        0.353479 
        937.029        0.353611 
        937.043        0.353746 
        937.058        0.353891 
        937.072        0.354023 
        937.086        0.354158 
        937.101        0.354299 
        937.115        0.354434 
        937.143        0.354702 
          937.2        0.355248 
        937.314        0.356483 
        937.428        0.359511 
        937.493        0.362703 
        937.542        0.365826 
        937.593        0.369725 
        937.694        0.378289 
        937.788        0.387563 
        937.794        0.388166 
        937.894        0.398473 
            938        0.409906 
        938.212        0.433342 
        938.359        0.449367 
        938.636        0.478625 
        938.914        0.506594 
        939.111        0.525224 
        939.191        0.532513 
        939.271        0.539603 
        939.431        0.553363 
        939.752        0.578926 
        940.072        0.602228 
        940.392        0.623327 
        940.628        0.637608 
        940.684        0.640853 
        940.712        0.642456 
         940.74        0.644042 
        940.853        0.650344 
        941.077        0.662355 
        941.301         0.67346 
        941.525        0.683664 
        941.749        0.692966 
        941.974        0.701427 
        942.422        0.715784 
        942.693        0.722771 
         942.87        0.726632 
        943.048         0.72993 
        943.402        0.734793 
        943.756         0.73726 
        944.111        0.737244 
        944.465        0.734624 
        944.819        0.729145 
        945.039        0.724253 
        945.173        0.720807 
        945.308        0.717006 
        945.576        0.708065 
        945.844        0.697254 
        946.112        0.684302 
        946.139        0.682875 
        946.381        0.669275 
        946.395        0.668459 
        946.649        0.651896 
        946.904        0.633204 
        947.108        0.616572 
        947.158        0.612274 
        947.208        0.607895 
        947.308        0.598982 
        947.509        0.580629 
        947.709        0.561057 
        947.735        0.558522 
        947.909        0.541146 
        948.083        0.523584 
        948.257        0.507179 
        948.317        0.501854 
        948.431        0.493221 
        948.546        0.486586 
         948.66        0.483378 
        948.727        0.483039 
        948.761        0.483233 
        948.771        0.483331 
        948.774        0.483359 
        948.777        0.483391 
        948.827        0.483965 
        948.835        0.484066 
        948.893        0.484804 
        948.922        0.485175 
        948.951        0.485543 
        948.966        0.485734 
         948.98        0.485913 
        948.994        0.486092 
        949.009        0.486284 
        949.023        0.486463 
        949.037        0.486642 
        949.052        0.486834 
        949.066         0.48701 
        949.095         0.48738 
        949.153        0.488125 
         949.23        0.489121 
        949.258        0.489501 
        949.269        0.489671 
         949.28        0.489847 
         949.33        0.490874 
         949.36        0.491741 
         949.43        0.494644 
          949.5        0.498919 
         949.64        0.511247 
        949.781        0.526964 
        949.795        0.528705 
        949.879        0.539097 
        949.921         0.54441 
        949.963        0.550058 
        950.047        0.561305 
        950.131        0.572948 
        950.467        0.619356 
        950.888        0.676426 
        951.098        0.704069 
        951.308        0.730738 
        951.518        0.756458 
        951.728        0.781226 
        952.149        0.828347 
          952.4        0.855032 
        952.569        0.872461 
        952.738        0.889853 
        953.076        0.923672 
        953.415        0.956062 
        953.753        0.987271 
         954.43         1.04689 
        955.106         1.10315 
        955.552         1.13878 
        955.783         1.15696 
        956.014         1.17492 
        956.476            1.21 
        957.401          1.2782 
        958.326         1.34429 
        959.137         1.40089 
        959.213         1.40614 
        959.251         1.40877 
        959.289          1.4114 
        959.441         1.42188 
        959.745         1.44276 
        960.278         1.47901 
        960.354         1.48418 
         960.43         1.48933 
        960.582         1.49965 
        960.886         1.52023 
        961.192         1.54093 
        961.495         1.56128 
        962.712         1.64261 
        964.231         1.74279 
        964.991         1.79204 
         965.75         1.84009 
        966.507          1.8858 
         966.51         1.88597 
        967.269         1.92757 
        967.651         1.94564 
        968.032         1.96081 
        968.292         1.96872 
        968.413         1.97159 
        968.543         1.97399 
        968.795          1.9762 
        969.046         1.97445 
        969.297         1.96749 
        969.548         1.95356 
        969.672         1.94357 
        969.799         1.93079 
        969.927         1.91475 
        970.054         1.89513 
        970.181         1.87148 
        970.308         1.84303 
        970.435         1.80921 
        970.562         1.76872 
        970.689         1.72035 
        970.758         1.69028 
        970.816         1.66281 
        970.874         1.63326 
         970.99         1.56733 
        971.106         1.49045 
        971.223         1.40045 
        971.298         1.33439 
        971.329         1.30538 
        971.339         1.29649 
        971.348         1.28748 
        971.398         1.23721 
        971.411         1.22347 
        971.467         1.16167 
        971.498         1.12551 
        971.585         1.02069 
        971.644        0.951478 
        971.703        0.894358 
        971.732        0.877167 
        971.762         0.87035 
        971.778        0.870127 
        971.792        0.870394 
        971.806        0.870696 
        971.821        0.871022 
        971.827        0.871151 
        971.833        0.871283 
        971.836        0.871349 
        971.839        0.871412 
        971.851        0.871673 
        971.866        0.871999 
         971.88        0.872304 
         971.91        0.873218 
        971.969        0.895816 
        972.037         0.96428 
        972.087         1.02605 
        972.137         1.08986 
         972.15         1.10609 
        972.237         1.21375 
        972.324         1.31122 
        972.499         1.47837 
        972.548         1.51976 
        972.673         1.61479 
        972.798         1.69725 
        972.923         1.76925 
        973.048         1.83219 
        973.173         1.88793 
        973.298         1.93766 
        973.351         1.95728 
        973.423         1.98271 
        973.548         2.02383 
        973.746         2.08199 
        973.943         2.13405 
         974.14         2.17989 
        974.337         2.22219 
        974.534          2.2618 
        974.731         2.29797 
        975.126         2.36328 
          975.4         2.40428 
         975.52         2.42075 
         975.64         2.43691 
         975.88         2.46851 
        976.361         2.52783 
        977.321         2.64115 
        978.282         2.74397 
        979.181         2.83765 
        979.243         2.84418 
        979.305         2.85072 
        979.429         2.86336 
        979.677          2.8887 
        980.173         2.93848 
        981.166         3.03381 
         982.38         3.14907 
        983.152          3.2229 
        983.923         3.29773 
        984.315         3.33599 
        985.466         3.44959 
        986.618         3.56536 
        988.532         3.76159 
        988.922         3.80265 
        989.312          3.8439 
        989.428         3.85621 
        990.093         3.92658 
        991.654         4.09714 
        993.763          4.3403 
         993.88         4.35387 
        996.105         4.61877 
        997.574         4.80309 
        997.806         4.83281 
        998.447         4.91477 
        999.319         5.02721 
        1001.06         5.25658 
        1004.32         5.70208 
        1005.84         5.91609 
        1007.58         6.16773 
        1009.33         6.42299 
         1011.3         6.71072 
        1012.82         6.92589 
        1014.33         7.15105 
        1015.09          7.2546 
        1015.84         7.36861 
         1016.6          7.4593 
        1017.36         7.51535 
        1018.11         7.56825 
         1018.4          7.5741 
        1018.87         7.59292 
        1019.33         7.57608 
         1019.8         7.54058 
        1020.26         7.48384 
        1020.41         7.46075 
        1020.73         7.40144 
        1021.04         7.32663 
        1021.36         7.23964 
        1021.68         7.12755 
           1022         6.99381 
        1022.16         6.91908 
        1022.32         6.84324 
        1022.48         6.74572 
        1022.64         6.64711 
        1022.88         6.48978 
        1022.96            6.42 
        1023.04         6.35095 
        1023.21         6.21316 
        1023.38          6.0573 
        1023.54         5.86146 
        1023.71          5.6723 
        1023.71         5.66998 
        1023.87          5.4599 
        1024.04         5.20876 
        1024.21         4.93607 
        1024.21          4.9274 
        1024.38         4.61962 
        1024.54         4.24982 
        1024.62         4.03886 
        1024.67         3.88612 
         1024.7          3.7657 
        1024.79         3.47683 
        1024.85         3.27571 
        1024.91         3.10723 
        1024.95         3.05515 
        1024.98         3.03582 
        1024.99         3.03491 
        1025.01         3.03578 
        1025.03         3.03685 
        1025.04         3.03786 
        1025.06         3.03894 
        1025.07         3.04002 
        1025.09         3.04102 
         1025.1          3.0421 
        1025.13         3.04429 
         1025.2         3.08643 
        1025.27         3.27822 
        1025.32         3.44523 
        1025.37          3.6259 
        1025.47         3.97622 
        1025.57         4.29321 
        1025.67         4.56715 
        1025.77          4.8062 
        1025.87          5.0207 
        1025.97         5.22161 
        1026.07         5.40571 
        1026.27         5.75047 
        1026.47         6.05639 
        1026.66         6.32732 
        1026.66         6.33885 
        1026.76          6.4773 
        1026.86         6.62273 
        1026.97         6.74048 
        1027.07         6.85772 
        1027.28         7.09494 
        1027.48         7.30958 
        1027.69         7.51456 
        1027.89         7.71506 
         1028.1         7.88854 
        1028.31         8.06447 
        1028.51           8.219 
        1028.78         8.41476 
