# Koester WD models
# teff = 6250 K (value for the effective temperature for the model. Temperatures are given in K)
# logg = 9 log(cm/s2) (value for Log(G) for the model.)
#
# column 1: WAVELENGTH (ANGSTROM), Wavelength in Angstrom
# column 2: FLUX (ERG/CM2/S/A), Flux in erg/cm2/s/A
         899.23        0.130863 
        901.337        0.139213 
        902.653        0.144675 
        903.444        0.148048 
        904.235        0.151494 
        905.817        0.158607 
        907.398        0.166024 
        908.718        0.172458 
        908.979        0.173759 
        909.241        0.175069 
        909.495        0.176353 
        909.763        0.177715 
        910.032        0.179087 
        910.568         0.18186 
        911.247        0.185427 
         911.64        0.187523 
        912.034         0.18964 
        912.357        0.191396 
        912.821        0.193941 
        913.037        0.195139 
        913.241        0.196276 
        913.284        0.196517 
        913.478        0.197605 
        913.531        0.197903 
        913.755        0.199163 
        913.822        0.199543 
         914.08        0.201012 
        914.165        0.201498 
        914.499        0.203418 
        914.575        0.203858 
        915.071        0.206741 
         915.54        0.209507 
        915.609        0.209911 
        915.643        0.210113 
        915.677        0.210315 
        915.741        0.210697 
        915.813        0.211126 
        916.085        0.212759 
        916.429        0.214837 
        916.858        0.217466 
        917.118        0.219064 
        917.196        0.219537 
        917.378        0.220664 
        917.899        0.224014 
        917.952        0.224356 
        918.602        0.228388 
        919.251        0.233003 
        919.587        0.235276 
        919.901        0.237069 
        920.215        0.238956 
         920.53         0.24134 
        920.844        0.244146 
        921.158        0.246644 
        921.473        0.248946 
        921.787        0.250907 
        921.798        0.250963 
        922.101        0.252193 
        922.405         0.25401 
        922.606        0.255482 
        922.708        0.256526 
         922.81        0.257734 
        923.014        0.260134 
        923.423        0.264325 
        923.831           0.268 
        924.239        0.271234 
        924.444         0.27262 
        924.648        0.273718 
        924.852        0.274419 
        925.056        0.274642 
         925.26        0.275036 
        925.408        0.276072 
        925.446        0.276363 
        925.465        0.276508 
        925.484        0.276654 
         925.56        0.277236 
        925.712        0.278504 
        925.864        0.280552 
        926.016         0.28297 
        926.176        0.285367 
        926.273        0.286707 
        926.321        0.287343 
        926.369        0.287951 
        926.561        0.290311 
        926.945        0.294518 
        927.245        0.297514 
        927.276        0.297801 
         927.33        0.298313 
        927.714        0.301782 
        927.729        0.301912 
        928.182        0.305619 
        928.636        0.308803 
        928.917        0.310253 
         928.98        0.310477 
        929.089        0.310839 
        929.261        0.311092 
        929.317        0.311125 
        929.543        0.310966 
        929.655         0.31096 
        929.769        0.311343 
        929.827        0.311748 
        929.883        0.312217 
         929.91        0.312448 
        929.939        0.312696 
        929.954        0.312824 
        929.968        0.312944 
        929.982        0.313064 
        929.996        0.313184 
         930.01        0.313304 
        930.024        0.313424 
        930.038        0.313544 
        930.052        0.313664 
        930.081        0.313914 
        930.137        0.314395 
        930.201         0.31496 
        930.247        0.315428 
        930.249        0.315454 
        930.251        0.315476 
        930.301        0.316098 
        930.326        0.316449 
        930.329        0.316493 
        930.402        0.317668 
        930.478        0.319026 
         930.63        0.321847 
        930.931        0.327015 
        931.229        0.331391 
        931.232        0.331432 
         931.49        0.334812 
        931.534        0.335368 
        931.838        0.339003 
        932.447        0.345679 
        933.265        0.354045 
        933.403        0.355412 
        933.432        0.355688 
        933.542        0.356769 
        933.652         0.35784 
        933.872        0.359964 
        933.973        0.360928 
        934.073        0.361871 
        934.312        0.364076 
        934.316        0.364114 
        934.652        0.367086 
        934.773        0.368122 
         935.23        0.371654 
        935.687        0.374424 
        936.144        0.376102 
        936.372         0.37625 
        936.601        0.376196 
        936.714         0.37636 
        936.829        0.377007 
        936.887        0.377538 
        936.944        0.378113 
        936.973        0.378408 
        937.001        0.378694 
        937.015        0.378838 
        937.029         0.37898 
        937.043        0.379124 
        937.058        0.379275 
        937.072         0.37942 
        937.086        0.379561 
        937.101        0.379715 
        937.115        0.379859 
        937.143        0.380145 
          937.2         0.38073 
        937.314        0.381958 
        937.493        0.384836 
        937.542        0.385838 
        937.593        0.386893 
        937.694        0.389055 
        937.788        0.391034 
        937.894        0.393227 
            938        0.395369 
        938.212        0.399296 
        938.359        0.401869 
        938.556        0.405162 
        938.636        0.406466 
        938.914         0.41082 
        939.231        0.415582 
        939.271        0.416167 
        939.986        0.426396 
         940.74        0.437024 
        941.452        0.447988 
         942.25        0.459216 
        942.383         0.46101 
        943.048        0.469634 
        943.115         0.47046 
        943.845        0.479219 
        944.577        0.487248 
        945.308        0.494468 
        946.038        0.501002 
        946.382        0.503946 
         946.77        0.507179 
        947.158        0.510213 
        947.787        0.514194 
        947.935        0.514863 
        948.083        0.515271 
        948.213        0.515491 
        948.314         0.51562 
        948.379        0.515623 
        948.546        0.515868 
        948.661        0.516434 
        948.777        0.517593 
        948.835        0.518347 
        948.893        0.519132 
        948.922        0.519528 
        948.951        0.519924 
        948.966        0.520128 
         948.98        0.520317 
        948.994        0.520508 
        949.009        0.520713 
        949.023        0.520904 
        949.037        0.521096 
        949.052          0.5213 
        949.066        0.521492 
        949.095        0.521888 
        949.153        0.522679 
         949.23        0.523738 
        949.258        0.524137 
        949.269          0.5243 
         949.28        0.524467 
         949.33        0.525287 
         949.36        0.525824 
         949.43        0.527282 
          949.5        0.528912 
         949.64        0.532588 
        949.795        0.536763 
        949.879        0.539034 
        949.921        0.540134 
        949.963        0.541234 
        950.047        0.543417 
        950.131        0.545494 
        950.467        0.553341 
        950.718        0.558877 
        950.888        0.562534 
        951.728        0.580378 
        952.738        0.603261 
        953.502        0.621793 
        953.748        0.627964 
        954.758        0.653699 
        955.385        0.670139 
        956.014        0.686752 
        956.643        0.706133 
         957.27        0.724901 
        957.764        0.739421 
        957.899        0.743361 
        958.148        0.750668 
        958.526        0.761755 
        959.289        0.784104 
         960.43        0.817194 
        961.192        0.839641 
        962.712         0.88465 
        964.231          0.9302 
         965.75        0.979853 
        966.507         1.00444 
        967.269         1.02817 
        967.651          1.0393 
        968.032         1.04961 
        968.292         1.05586 
        968.413         1.05853 
        968.795         1.06563 
        969.046         1.06881 
        969.297         1.07031 
        969.548         1.06975 
        969.672         1.06827 
        969.799         1.06581 
        969.927         1.06228 
        970.054         1.05763 
        970.181         1.05138 
        970.308         1.04362 
        970.435         1.03425 
        970.504         1.02856 
        970.562         1.02343 
        970.689         1.01113 
        970.874        0.991942 
        971.142        0.966555 
        971.245        0.958996 
        971.317         0.95495 
        971.348        0.953451 
        971.451        0.948924 
        971.467        0.948195 
        971.585        0.941576 
        971.644        0.936748 
        971.703         0.93174 
        971.732         0.93016 
        971.762        0.929911 
        971.778        0.930207 
        971.792        0.930527 
        971.806        0.930851 
        971.821        0.931199 
        971.827        0.931338 
        971.833        0.931476 
        971.836        0.931545 
        971.839        0.931614 
        971.851        0.931894 
        971.866        0.932239 
         971.88        0.932563 
         971.91        0.933289 
        971.969        0.937326 
        972.037        0.946289 
        972.087        0.952823 
        972.137        0.958465 
         972.15         0.95981 
        972.237        0.968261 
        972.324        0.976297 
        972.499        0.995137 
        972.548         1.00133 
        972.673         1.01857 
        972.798         1.03706 
        973.048         1.07468 
        973.298         1.10966 
        973.351         1.11664 
        973.548         1.14097 
        973.746         1.16306 
        973.943          1.1831 
         974.14         1.20121 
        974.337         1.21793 
        974.731          1.2481 
        975.126         1.27431 
          975.4         1.29095 
         975.52         1.29774 
         975.64         1.30443 
         975.88         1.31759 
        976.361         1.34266 
        977.321         1.39073 
        978.282         1.43587 
        979.181         1.47759 
        979.243         1.48049 
        979.305         1.48339 
        979.429         1.48939 
        979.677         1.50141 
        980.173         1.52536 
        981.166          1.5724 
         982.38         1.62988 
        983.152         1.66658 
        983.923         1.70356 
        984.315         1.72317 
        985.466         1.77991 
        986.618         1.83671 
        988.532         1.93208 
        988.922         1.95197 
        989.312         1.97195 
        989.428         1.97792 
        990.093         2.01216 
        991.654         2.09466 
         993.88         2.21759 
        996.105         2.34589 
        998.215         2.47356 
        998.331         2.48073 
        998.447         2.48791 
        998.679         2.50291 
        998.967          2.5215 
        999.143         2.53283 
        999.247         2.53951 
        999.319         2.54414 
        999.672         2.56666 
        1000.38         2.61183 
        1001.78         2.70329 
        1001.82         2.70566 
        1004.32         2.87316 
        1006.82          3.0477 
        1009.33         3.22924 
        1011.83         3.41513 
        1014.33         3.60356 
        1015.58         3.69659 
        1016.83         3.78688 
        1017.62         3.84025 
        1018.08         3.86749 
        1018.48         3.88898 
         1018.9          3.9132 
        1019.33         3.93023 
        1019.76         3.94248 
        1020.19         3.94807 
        1020.62         3.94556 
        1021.04         3.93331 
        1021.47         3.90751 
         1021.9         3.86579 
        1022.11         3.83579 
        1022.33         3.80513 
        1022.47         3.77651 
        1022.54         3.76193 
        1022.76         3.71895 
        1023.04         3.64522 
        1023.19          3.6079 
        1023.33         3.57171 
        1023.47         3.52242 
        1023.62         3.47953 
        1023.76         3.44205 
        1023.76          3.4413 
         1023.9         3.40495 
        1024.04         3.37222 
         1024.1         3.35978 
        1024.18         3.34536 
        1024.32         3.32359 
        1024.54         3.30009 
        1024.67         3.28642 
        1024.73         3.27784 
        1024.76         3.27235 
        1024.79         3.26669 
        1024.87          3.2491 
        1024.91         3.23735 
        1024.95         3.23276 
        1024.95         3.23248 
        1024.96          3.2321 
        1024.98         3.23235 
        1024.99         3.23317 
        1025.01          3.2343 
        1025.03         3.23543 
        1025.04          3.2365 
        1025.06         3.23766 
        1025.07         3.23879 
        1025.09         3.23986 
         1025.1         3.24102 
        1025.13         3.24325 
         1025.2         3.25255 
        1025.27         3.27963 
        1025.32         3.29874 
        1025.37         3.31655 
        1025.47         3.34652 
        1025.57         3.37259 
        1025.62         3.38519 
        1025.77         3.42405 
        1025.92         3.46892 
        1026.07         3.52003 
        1026.22         3.57711 
        1026.27         3.59737 
        1026.37         3.64089 
        1026.67         3.77246 
        1027.07         3.95794 
        1027.47          4.1322 
        1027.67         4.21256 
        1027.87         4.29324 
        1028.07         4.36157 
        1028.27         4.43037 
        1028.27          4.4314 
        1028.67         4.55041 
         1028.8         4.58669 
        1029.07         4.65788 
        1029.34         4.72653 
        1029.88         4.84795 
        1030.42         4.96529 
        1030.96         5.07279 
        1031.51         5.16817 
           1032         5.24743 
        1032.05         5.25557 
        1032.59         5.33804 
        1033.19         5.42487 
        1034.38         5.58377 
        1034.86         5.65088 
        1035.56         5.74999 
        1035.99         5.81166 
        1036.27         5.85156 
        1037.67         6.04976 
        1039.34         6.27967 
        1041.05         6.51139 
         1042.7         6.74066 
        1044.35         6.97609 
        1045.95         7.21083 
        1047.65         7.46634 
        1049.35          7.7297 
        1051.15         8.01998 
        1052.75         8.28561 
        1054.35         8.55874 
        1055.75         8.80406 
        1057.55         9.12777 
        1059.36         9.46311 
        1061.56         9.88288 
        1062.96         10.1587 
        1064.36         10.4405 
        1064.96         10.5631 
        1067.16         11.0229 
        1069.36         11.4987 
        1071.56         12.0033 
        1073.16         12.3825 
        1073.76         12.5272 
        1074.36         12.6734 
        1075.56         12.9705 
        1076.56         13.2232 
        1077.96         13.5853 
        1079.36         13.9567 
        1081.89         14.6327 
        1082.16         14.7085 
        1082.31         14.7469 
        1082.44         14.7846 
           1083         14.9379 
        1084.11         15.2484 
         1085.9         15.7642 
        1089.37         16.7999 
        1091.29         17.4133 
        1092.83         17.9177 
        1094.37         18.4349 
        1095.52         18.8309 
        1097.45          19.509 
        1099.37         20.2084 
        1102.07         21.2047 
        1103.22         21.6432 
        1103.98         21.9369 
        1104.37         22.0897 
        1106.68          23.007 
        1106.88         23.0865 
        1109.38         24.1225 
        1111.88         25.2514 
        1114.38          26.427 
        1116.88         27.6507 
        1118.68         28.5647 
        1119.38         28.9245 
        1120.08         29.2883 
        1121.47         30.0279 
        1123.78         31.2908 
        1124.25         31.5516 
        1124.73         31.8089 
        1125.68         32.3289 
        1125.79         32.3882 
        1127.08         33.1023 
        1127.59         33.3907 
        1127.85         33.5371 
        1129.38         34.4199 
        1131.69          35.779 
        1135.54         38.1311 
        1139.39         40.5752 
        1142.08         42.3333 
        1143.23         43.1001 
           1144         43.6157 
        1144.39         43.8739 
         1146.7         45.4193 
        1149.39         47.2197 
        1151.89         48.8467 
        1154.39         50.4263 
        1156.89         51.9258 
        1159.39          53.342 
        1161.89         54.6797 
        1164.39         55.9125 
        1166.89         57.0347 
        1169.39         58.0079 
         1171.9         58.8917 
        1173.15         59.3541 
         1174.4         59.8696 
        1175.65         60.4694 
         1176.9         61.1665 
        1177.86         61.7738 
        1178.15          61.967 
         1179.4          62.867 
        1180.94         64.0957 
        1182.47         65.4428 
        1182.86         65.7928 
        1184.01         66.8854 
        1185.17         68.0252 
        1185.56         68.4201 
        1187.48         70.4267 
         1189.4         72.5212 
        1192.09         75.5572 
        1193.24          76.898 
        1194.03         77.8254 
         1194.4         78.2602 
        1196.72         81.0512 
         1199.4         84.4168 
         1204.4          90.912 
        1208.48         96.2832 
         1209.4          97.467 
        1210.33         98.6071 
        1211.64         100.129 
        1212.16         100.666 
        1212.69         101.151 
        1213.61         101.997 
        1213.74         102.145 
        1213.81         102.217 
        1213.88         102.302 
        1214.14          102.66 
        1214.17         102.711 
        1214.47         103.164 
        1214.62         103.394 
        1214.76         103.625 
        1214.84         103.741 
        1214.91         103.857 
        1214.95         103.915 
        1214.98         103.973 
           1215         104.003 
        1215.02         104.031 
        1215.04         104.059 
        1215.06         104.089 
        1215.08         104.117 
         1215.1         104.146 
        1215.11         104.175 
        1215.13         104.203 
        1215.17         104.262 
        1215.24         104.378 
        1215.39         104.611 
        1215.64             105 
        1215.69         105.079 
        1215.74         105.158 
         1215.8          105.25 
        1215.84         105.316 
        1216.04          105.64 
        1216.06         105.685 
        1216.28         106.055 
        1216.76         106.991 
        1217.46         108.549 
        1218.32         110.534 
        1218.86          111.77 
