# Koester WD models
# teff = 6750 K (value for the effective temperature for the model. Temperatures are given in K)
# logg = 9.5 log(cm/s2) (value for Log(G) for the model.)
#
# column 1: WAVELENGTH (ANGSTROM), Wavelength in Angstrom
# column 2: FLUX (ERG/CM2/S/A), Flux in erg/cm2/s/A
         899.23        0.887861 
        900.399        0.916619 
        901.241        0.937838 
        902.738        0.976696 
        904.235         1.01702 
        905.219         1.04433 
        905.733         1.05885 
         907.23         1.10224 
         908.45         1.13878 
        909.241         1.16305 
        910.032         1.18779 
        911.193         1.22499 
        911.613         1.23872 
        912.034         1.25258 
        912.465         1.26696 
        912.875         1.28074 
        913.037         1.28624 
        913.241         1.29319 
        913.284         1.29466 
        913.478         1.30131 
        913.531         1.30313 
        913.755         1.31082 
        913.822         1.31314 
         914.08          1.3221 
        914.165         1.32507 
        914.499         1.33678 
        914.575         1.33946 
        915.071         1.35702 
         915.54         1.37387 
        915.609         1.37631 
        915.643         1.37754 
        915.677         1.37877 
        915.741         1.38109 
        915.813         1.38373 
        916.085         1.39406 
        916.429         1.40624 
        916.858         1.42367 
        917.118         1.43293 
        917.378         1.44158 
        917.639         1.45315 
        917.899         1.46656 
        918.159         1.47682 
        918.237         1.47902 
         918.42         1.48192 
        918.602         1.48833 
        918.681          1.4914 
        918.784         1.49615 
        918.966         1.51004 
        919.251         1.52891 
        919.429          1.5376 
        919.537         1.54189 
        919.822         1.54725 
        920.018         1.54548 
        920.215          1.5521 
        920.413         1.56144 
        920.609         1.58199 
        920.806         1.60079 
        921.002         1.61597 
        921.199         1.62804 
        921.396         1.63786 
        921.593         1.64509 
        921.789         1.64799 
         921.96         1.64458 
        921.986          1.6435 
        922.071         1.63965 
        922.182         1.63564 
        922.293         1.63788 
        922.355         1.64046 
        922.405         1.64258 
        922.455          1.6447 
        922.555         1.64913 
          922.7         1.66362 
        922.755         1.67178 
         922.81         1.67995 
         922.92         1.69624 
         923.14         1.72319 
        923.361         1.74456 
        923.581         1.76203 
        923.801         1.77666 
        924.021         1.78897 
        924.241         1.79871 
        924.462         1.80477 
        924.572         1.80576 
        924.682         1.80479 
        924.792         1.80146 
        924.902         1.79557 
        925.012         1.78752 
        925.122         1.77794 
        925.201         1.77208 
        925.232         1.77077 
        925.343         1.77157 
        925.484         1.77795 
        925.625         1.78443 
        925.766         1.79804 
        925.907         1.82354 
         926.01         1.84362 
        926.048         1.85068 
        926.189         1.87554 
        926.369         1.90201 
        926.548         1.92723 
        926.727         1.94844 
        926.906         1.96728 
        927.264         1.99813 
        927.623         2.02282 
         927.78         2.03211 
        927.981          2.0426 
        928.182         2.05131 
        928.384         2.05786 
        928.585         2.06143 
        928.786         2.06078 
        928.885         2.05891 
        928.917         2.05809 
         928.98         2.05592 
        928.987         2.05563 
        929.089         2.05034 
        929.121         2.04826 
        929.261         2.03757 
        929.317         2.03203 
        929.402         2.02254 
        929.543         2.00527 
        929.655         1.99274 
        929.769         1.98591 
        929.827         1.98652 
        929.883         1.98895 
         929.91         1.99031 
        929.939         1.99178 
        929.954         1.99254 
        929.968         1.99324 
        929.982         1.99395 
        929.996         1.99466 
         930.01         1.99537 
        930.024         1.99608 
        930.038         1.99679 
        930.052          1.9975 
        930.081         1.99897 
        930.137         2.00181 
        930.201         2.00561 
        930.247         2.00986 
        930.249          2.0101 
        930.251         2.01035 
        930.301         2.01732 
        930.326         2.02133 
        930.329         2.02187 
        930.402         2.03636 
        930.478         2.05357 
         930.63         2.08931 
        930.781         2.12288 
        930.931         2.15261 
        931.081         2.17993 
        931.232         2.20433 
        931.534         2.24604 
        931.788         2.27539 
        931.832         2.28006 
        931.835         2.28038 
        931.838         2.28069 
        931.888         2.28579 
        931.988         2.29561 
        932.188         2.31419 
        932.589          2.3476 
        932.989          2.3776 
        933.347         2.40223 
        933.375         2.40408 
        933.377         2.40421 
        933.389           2.405 
        933.403         2.40591 
        933.432         2.40773 
         933.46         2.40953 
        933.542         2.41472 
        933.652          2.4215 
        933.872         2.43447 
        933.973         2.44014 
        934.073         2.44555 
        934.312          2.4575 
        934.362          2.4598 
        934.652         2.47159 
        934.941         2.48012 
         935.23           2.484 
        935.473         2.48297 
         935.52         2.48206 
        935.641         2.47852 
        935.809         2.47057 
        935.976         2.45979 
        936.144          2.4446 
        936.311         2.42598 
        936.358         2.41978 
        936.372         2.41802 
        936.479         2.40349 
        936.486          2.4026 
        936.601         2.38719 
        936.715          2.3749 
        936.829         2.37056 
        936.887         2.37225 
        936.944         2.37542 
        936.973         2.37714 
        937.001          2.3788 
        937.015         2.37963 
        937.029         2.38046 
        937.043         2.38129 
        937.058         2.38218 
        937.072         2.38302 
        937.086         2.38385 
        937.101         2.38474 
        937.115         2.38558 
        937.143         2.38724 
          937.2         2.39064 
        937.314         2.39938 
        937.428          2.4174 
        937.493          2.4318 
        937.542         2.44374 
        937.593         2.45694 
        937.694          2.4832 
        937.788         2.50809 
        937.894          2.5356 
            938         2.56078 
        938.212         2.60811 
        938.359         2.63767 
        938.424         2.65017 
        938.636         2.68783 
        938.914         2.73138 
        939.111         2.75933 
        939.191         2.77007 
        939.271         2.78058 
        939.431         2.80102 
        939.752          2.8394 
        940.044          2.8731 
        940.392         2.91119 
         940.74         2.94743 
        941.437         3.01936 
        942.134         3.08345 
        942.613         3.12456 
         942.83         3.14244 
        943.048         3.15985 
        943.482         3.19346 
        944.351         3.25334 
        945.131         3.29575 
         945.22         3.29971 
        945.308         3.30345 
        945.484         3.31052 
        945.836         3.32176 
        945.923         3.32393 
        946.541         3.33358 
         946.85          3.3331 
        947.158         3.32745 
        947.467         3.31438 
        947.469         3.31429 
        947.776         3.29204 
        948.083         3.25852 
        948.235         3.23669 
        948.314         3.22447 
         948.39          3.2131 
        948.429         3.20691 
        948.546         3.19066 
        948.661         3.17989 
        948.777         3.17904 
        948.835         3.18246 
        948.893         3.18686 
        948.922         3.18909 
        948.951         3.19136 
        948.966         3.19252 
         948.98         3.19359 
        948.994         3.19469 
        949.009         3.19585 
        949.023         3.19695 
        949.037         3.19802 
        949.052         3.19918 
        949.066         3.20028 
        949.095         3.20251 
        949.153         3.20703 
         949.23         3.21325 
        949.258         3.21599 
        949.269         3.21721 
         949.28         3.21847 
         949.33         3.22569 
         949.36         3.23116 
         949.43         3.24655 
          949.5         3.26537 
         949.64         3.30835 
        949.795         3.35761 
        949.879         3.38434 
        949.921         3.39757 
        949.963         3.41039 
        950.131         3.45918 
        950.467         3.54746 
        950.719         3.60664 
        950.804         3.62521 
        950.888          3.6433 
        951.056         3.67789 
        951.392          3.7433 
        952.065         3.86724 
        952.157         3.88408 
        952.738         3.98863 
        954.085         4.22657 
        954.377         4.27788 
        955.195         4.42113 
        956.014         4.56499 
        956.833         4.73133 
        957.651         4.88882 
         958.47         5.04182 
        959.239         5.18394 
        959.289         5.19318 
        959.339         5.20226 
        959.439         5.22042 
        959.639         5.25673 
        959.649         5.25852 
        960.039          5.3294 
         960.43         5.39993 
         961.21         5.54453 
        961.313          5.5636 
        962.772         5.83925 
        963.501         5.97883 
        963.866          6.0492 
        964.049         6.08451 
        964.231         6.11995 
        964.413          6.1797 
        964.596         6.23757 
        964.778         6.29296 
        964.961         6.34624 
        965.143         6.39716 
        965.326         6.44614 
        965.508         6.49314 
         965.69         6.53825 
        965.872         6.58161 
        966.055         6.62326 
        966.238          6.6636 
         966.42         6.70262 
        966.602         6.74016 
        966.785         6.77616 
        966.967         6.81066 
        966.996         6.81606 
        967.149         6.84361 
        967.515         6.90384 
        968.032          6.9738 
        968.291         6.99692 
        968.549           7.012 
        968.809         7.01665 
        968.839          7.0164 
        969.068         7.00761 
        969.297         6.98486 
        969.526         6.94455 
        969.584         6.93089 
        969.755         6.88238 
        969.927         6.81952 
        970.098         6.74038 
        970.269         6.64613 
        970.348         6.59756 
        970.401         6.56373 
         970.44         6.53797 
        970.611         6.41984 
        970.874         6.23301 
         971.11         6.07725 
        971.229         5.99994 
        971.348         5.91882 
        971.467         5.80984 
        971.585         5.65864 
        971.644         5.56964 
        971.703         5.49373 
        971.732         5.47426 
        971.762         5.47017 
        971.778         5.47184 
        971.792          5.4736 
        971.806         5.47536 
        971.821         5.47724 
        971.827           5.478 
        971.833         5.47875 
        971.836         5.47913 
        971.839          5.4795 
        971.851         5.48101 
        971.866         5.48293 
         971.88         5.48469 
         971.91         5.48858 
        971.969         5.52147 
        972.037         5.62483 
        972.087         5.71431 
        972.137         5.79825 
         972.15         5.81923 
        972.237         5.94377 
        972.324         6.04587 
        972.499         6.21328 
        972.548         6.25859 
        972.673         6.37347 
        972.798         6.48996 
        973.048         6.72869 
        973.351         7.01398 
        973.548         7.19029 
        973.746         7.35642 
        973.943          7.5129 
         974.14         7.65487 
        974.337         7.78848 
        974.731         8.03082 
        975.126         8.24052 
          975.4         8.37234 
         975.52         8.42569 
         975.64         8.47793 
         975.88         8.58085 
        976.361         8.77321 
        977.321         9.14458 
        978.282         9.48189 
        979.181         9.79153 
        979.243          9.8132 
        979.305         9.83491 
        979.429         9.89187 
        979.677         10.0035 
        980.173         10.2147 
        981.166         10.5884 
        982.159         10.9255 
         982.38         10.9981 
        983.152         11.2475 
        983.923         11.4942 
        984.315         11.6161 
        985.466         11.9771 
        986.618         12.3418 
        988.532         12.9558 
        988.922         13.0842 
        989.312          13.213 
        989.428         13.2519 
        990.093         13.4739 
        991.654         14.0109 
        992.767         14.4094 
         993.88         14.8168 
        994.992         15.2671 
        996.105         15.7215 
        998.215         16.5992 
        998.331         16.6475 
        998.447         16.6958 
        998.503         16.7315 
        998.679         16.8326 
        998.911         16.9496 
        999.319         17.1343 
        1000.14         17.4611 
        1000.85         17.7484 
        1000.95         17.7906 
        1002.59         18.4615 
        1004.32         19.1917 
        1006.27         20.0264 
         1007.8         20.6941 
        1009.33         21.3687 
        1010.44         21.8579 
        1012.38         22.7016 
        1014.33         23.5029 
         1015.3         23.8743 
        1016.27         24.2009 
        1017.11         24.4304 
        1017.25         24.4617 
        1017.66         24.5509 
        1018.22         24.6138 
        1018.78         24.6444 
        1019.33         24.5868 
        1019.85         24.4556 
        1019.89         24.4382 
        1020.14         24.3301 
        1020.45         24.1715 
        1020.74         23.9747 
        1021.04         23.7247 
        1021.35         23.4462 
        1021.64          23.089 
        1021.94         22.6936 
        1022.24         22.2511 
        1022.54         21.7446 
        1022.64         21.5755 
        1022.84         21.2473 
        1023.04         20.8462 
        1023.24         20.5007 
        1023.44         20.1235 
        1023.64         19.7829 
        1023.84         19.5042 
        1024.04         19.2258 
        1024.34         18.8557 
        1024.44         18.7265 
        1024.54         18.5586 
        1024.69         18.1924 
        1024.74         18.0265 
        1024.79         17.8438 
        1024.85         17.6095 
        1024.87         17.5435 
        1024.89         17.4684 
        1024.91         17.4064 
        1024.95         17.3541 
        1024.98         17.3451 
        1024.99         17.3493 
        1025.01         17.3549 
        1025.03         17.3606 
        1025.04         17.3659 
        1025.06         17.3716 
        1025.07         17.3772 
        1025.09         17.3826 
         1025.1         17.3883 
        1025.13         17.3993 
         1025.2         17.4598 
        1025.27          17.723 
        1025.32         17.9481 
        1025.37         18.1818 
        1025.47         18.5792 
        1025.52          18.753 
        1025.57          18.906 
        1025.62         19.0437 
        1025.72         19.2806 
        1025.77         19.3892 
        1025.92         19.6937 
        1026.07         19.9988 
        1026.37         20.6567 
        1026.67         21.3691 
        1026.86         21.9256 
        1026.96         22.1876 
        1027.07         22.4614 
        1027.28         23.0534 
        1027.69         24.2108 
        1027.98         25.0108 
        1028.11         25.3318 
        1028.26         25.7137 
        1028.53          26.365 
         1028.8         26.9889 
        1029.07         27.5633 
        1029.34         28.1378 
        1029.88          29.155 
        1030.42         30.1632 
        1030.96         31.0987 
        1031.51         31.9048 
           1032         32.5541 
        1032.05         32.6192 
        1032.59         33.2663 
        1033.19         33.9248 
        1033.78         34.4966 
        1034.38         35.0156 
        1034.86         35.4865 
        1035.56         36.1981 
        1036.27         36.9464 
        1037.67         38.3315 
         1038.8         39.3437 
        1039.07          39.575 
        1039.34         39.8049 
        1039.89         40.2573 
        1040.98         41.1696 
        1041.99         42.0031 
        1043.17          42.987 
        1044.06         43.7398 
        1044.35         43.9851 
         1046.7         46.0268 
        1046.85         46.1525 
        1049.35         48.3812 
        1051.85         50.7125 
        1054.35         53.1246 
        1056.85         55.6213 
        1059.36          58.231 
        1061.86         60.9337 
        1064.36         63.7395 
        1066.86          66.619 
        1069.36         69.5797 
        1071.86          72.742 
        1074.36         76.0209 
        1076.29         78.6337 
        1076.86         79.4386 
        1078.98         82.4759 
        1079.36         83.0395 
        1082.44         87.5169 
         1085.9         92.7552 
        1089.32         98.1631 
        1089.37         98.2426 
        1089.42         98.3278 
        1089.52         98.4949 
        1089.72         98.8301 
        1090.12         99.5037 
        1090.67         100.436 
        1090.92         100.862 
        1092.52         103.627 
        1094.37         106.905 
        1096.77          111.29 
        1098.07          113.73 
        1099.37         116.215 
        1099.57          116.59 
        1101.97         121.182 
        1104.37         125.928 
        1106.78         130.832 
        1108.98         135.471 
        1109.18         135.899 
        1109.38         136.329 
        1109.78          137.25 
        1109.98         137.712 
        1110.58         139.106 
        1112.18         142.886 
        1114.38         148.228 
        1118.18         157.868 
        1118.68         159.187 
        1118.78          159.44 
        1119.38         161.025 
        1120.08          162.88 
        1121.47         166.648 
        1123.78         173.061 
        1124.25          174.37 
        1124.73         175.651 
        1125.68         178.237 
        1125.79         178.532 
        1127.08         182.077 
        1127.59         183.507 
        1127.85         184.231 
        1129.38         188.592 
        1131.69          195.26 
        1134.38         203.207 
