# Koester WD models
# teff = 6250 K (value for the effective temperature for the model. Temperatures are given in K)
# logg = 8 log(cm/s2) (value for Log(G) for the model.)
#
# column 1: WAVELENGTH (ANGSTROM), Wavelength in Angstrom
# column 2: FLUX (ERG/CM2/S/A), Flux in erg/cm2/s/A
         899.23       0.0833062 
        901.337       0.0887151 
        902.653       0.0922563 
        903.444       0.0944448 
        904.235       0.0966806 
        905.817        0.101299 
        907.398         0.10612 
        908.718        0.110304 
        908.979         0.11115 
        909.241        0.112002 
        909.495        0.112838 
        909.763        0.113724 
        910.032        0.114617 
        910.568        0.116422 
        911.247        0.118745 
         911.64         0.12011 
        912.034         0.12149 
        912.357        0.122634 
        912.821        0.124292 
        913.037        0.125073 
        913.241        0.125815 
        913.284        0.125972 
        913.478        0.126681 
        913.531        0.126876 
        913.755        0.127697 
        913.822        0.127945 
         914.08        0.128903 
        914.165         0.12922 
        914.499        0.130473 
        914.575        0.130759 
        915.071        0.132641 
         915.54        0.134446 
        915.609        0.134709 
        915.643        0.134841 
        915.677        0.134973 
        915.741        0.135222 
        915.813        0.135503 
        916.085        0.136606 
        916.429        0.137925 
        916.858        0.139839 
        917.118        0.140782 
        917.378        0.141731 
        917.639        0.142981 
        917.899        0.144729 
        918.029        0.145386 
        918.159        0.145809 
        918.237        0.145923 
        918.289        0.145927 
         918.42        0.146053 
        918.602        0.146779 
        918.784        0.147587 
        918.966        0.149341 
        919.045        0.150264 
        919.148        0.151384 
        919.251        0.152307 
        919.354        0.153505 
        919.458        0.154431 
        919.561        0.154953 
        919.664        0.154954 
        919.767         0.15442 
         919.87        0.153578 
        919.937          0.1531 
        919.973        0.152939 
        920.076        0.153085 
        920.215         0.15369 
        920.355        0.154302 
        920.494        0.155597 
        920.633        0.158361 
        920.772        0.161556 
        920.911        0.164319 
         921.05        0.166515 
        921.189        0.168101 
        921.329        0.169028 
        921.468        0.169262 
        921.607        0.168789 
        921.746        0.167557 
        921.885         0.16575 
        922.024        0.163793 
        922.163        0.162688 
          922.2        0.162679 
        922.302         0.16307 
        922.405        0.163543 
        922.408        0.163556 
        922.508        0.164023 
        922.609        0.164572 
        922.709        0.165859 
         922.81        0.168018 
        922.911        0.170593 
        923.011        0.173315 
        923.212        0.178398 
        923.314        0.180642 
        923.414        0.182603 
        923.515         0.18429 
        923.615        0.185766 
        923.716        0.187002 
        923.816        0.187976 
        923.917        0.188693 
        924.017        0.189153 
        924.118        0.189348 
        924.218        0.189267 
         924.32        0.188895 
         924.42        0.188293 
        924.521        0.187389 
        924.621        0.186169 
        924.722        0.184679 
        924.822         0.18297 
        924.923        0.181228 
        925.023        0.179446 
        925.124        0.178064 
        925.224        0.177386 
        925.326        0.177592 
        925.368        0.177801 
        925.426        0.178091 
        925.484        0.178382 
          925.6        0.178965 
        925.716        0.179693 
        925.832        0.181463 
        925.948        0.184324 
        926.064        0.187767 
        926.224        0.192598 
        926.297        0.194737 
        926.369        0.196814 
        926.513        0.200621 
        926.657        0.204136 
        926.801         0.20726 
        926.945            0.21 
        927.089        0.212446 
        927.233        0.214586 
        927.378        0.216396 
        927.522        0.217894 
        927.666        0.219077 
        927.726        0.219478 
         927.81        0.219945 
        927.954        0.220487 
        928.182        0.220647 
        928.411        0.219896 
        928.639        0.218217 
        928.645         0.21816 
        928.867        0.215482 
        928.917        0.214742 
        929.089        0.211942 
        929.261        0.208585 
        929.325        0.207272 
        929.434        0.205085 
        929.543        0.203097 
        929.652        0.201649 
        929.719        0.201231 
        929.753        0.201197 
        929.755        0.201195 
        929.761        0.201199 
        929.769        0.201214 
        929.819        0.201386 
        929.827        0.201424 
        929.883         0.20173 
         929.91        0.201882 
        929.939        0.202045 
        929.954        0.202129 
        929.968        0.202208 
        929.982        0.202287 
        929.996        0.202366 
         930.01        0.202445 
        930.024        0.202524 
        930.038        0.202603 
        930.052        0.202682 
        930.081        0.202845 
        930.137        0.203161 
        930.201        0.203538 
        930.247        0.203893 
        930.249        0.203912 
        930.251        0.203931 
        930.301        0.204519 
        930.326        0.204891 
        930.402        0.206447 
        930.478        0.208462 
         930.63        0.213267 
        930.633        0.213367 
        930.782         0.21839 
        930.931        0.223425 
        931.229        0.232685 
        931.528        0.240807 
        931.788        0.247065 
        931.814        0.247644 
        931.826        0.247908 
        931.838        0.248172 
        931.888        0.249253 
        931.988         0.25134 
        932.188        0.255197 
        932.389        0.258661 
        932.589        0.261772 
        932.789        0.264545 
        932.989        0.266985 
        933.347        0.270566 
        933.375        0.270803 
        933.377        0.270819 
        933.389        0.270919 
        933.403        0.271034 
        933.432        0.271258 
         933.46        0.271476 
        933.542        0.272078 
        933.652          0.2728 
        933.872        0.273944 
        933.973        0.274332 
        934.092        0.274676 
        934.312        0.274974 
        934.652        0.274508 
        934.752        0.274146 
        934.991        0.272808 
         935.23        0.270766 
        935.469        0.267925 
        935.709        0.264359 
        935.752        0.263627 
        935.948        0.259906 
         936.08        0.257169 
        936.144        0.255714 
         936.34        0.251148 
        936.372        0.250445 
        936.486          0.2479 
        936.601        0.245801 
        936.715        0.244505 
        936.829        0.244416 
        936.887        0.244734 
        936.944        0.245112 
        936.973        0.245307 
        937.001        0.245494 
        937.015        0.245589 
        937.029        0.245683 
        937.043        0.245777 
        937.058        0.245878 
        937.072        0.245972 
        937.086        0.246067 
        937.101        0.246168 
        937.115        0.246262 
        937.143        0.246451 
          937.2        0.246836 
        937.314        0.247681 
        937.428        0.249311 
        937.493        0.250811 
        937.542        0.252195 
        937.593        0.253783 
        937.694        0.257268 
        937.788        0.260838 
        937.894        0.264961 
            938        0.269125 
        938.212        0.277169 
        938.359        0.282576 
        938.424         0.28487 
        938.636        0.292012 
        938.914        0.300728 
        939.111        0.306441 
        939.191        0.308657 
        939.271        0.310804 
        939.431        0.314967 
        939.752        0.322714 
        940.044        0.329229 
        940.072        0.329826 
        940.392        0.336399 
         940.74        0.343093 
        941.089        0.349355 
        941.437        0.355101 
        941.785        0.360369 
        942.134        0.365185 
        942.482         0.36953 
        942.613        0.371041 
         942.83        0.373391 
        943.048        0.375552 
        943.482        0.379288 
        943.916          0.3822 
        944.351        0.384264 
        944.785        0.385411 
        945.131        0.385587 
         945.22         0.38553 
        945.308        0.385429 
        945.484        0.385162 
        945.836        0.384057 
        945.923        0.383658 
        946.188        0.382062 
        946.232        0.381747 
        946.541        0.379036 
         946.85        0.375361 
        947.108        0.371424 
        947.158         0.37056 
        947.208        0.369662 
        947.308        0.367742 
        947.509        0.363674 
        947.709        0.358974 
        947.735        0.358314 
        947.909         0.35391 
        948.083        0.349056 
        948.317        0.342628 
        948.431        0.339923 
        948.546        0.337894 
         948.66        0.336967 
        948.727        0.337052 
        948.761        0.337247 
        948.771         0.33731 
        948.774        0.337332 
        948.777        0.337357 
        948.827        0.337775 
        948.835        0.337844 
        948.893        0.338365 
        948.922        0.338629 
        948.951         0.33889 
        948.966        0.339025 
         948.98        0.339151 
        948.994        0.339279 
        949.009        0.339415 
        949.023         0.33954 
        949.037        0.339666 
        949.052        0.339801 
        949.066         0.33993 
        949.095        0.340191 
        949.153        0.340718 
         949.23        0.341422 
        949.258        0.341692 
        949.269        0.341805 
         949.28        0.341925 
         949.33        0.342562 
         949.36        0.343065 
         949.43         0.34457 
          949.5        0.346587 
         949.64         0.35184 
        949.781        0.358211 
        949.795        0.358867 
        949.879        0.362801 
        949.921        0.364893 
        949.963         0.36696 
        950.047        0.371082 
        950.131        0.375248 
        950.467        0.391131 
        950.888        0.409516 
        951.308        0.426226 
        951.728        0.441375 
        952.149        0.455399 
          952.4         0.46335 
        952.569        0.468675 
        952.738        0.473947 
        953.076        0.484204 
        953.753        0.503927 
        954.198         0.51655 
         954.43        0.522965 
        955.106        0.541488 
        956.014        0.565923 
         956.37        0.575367 
         957.83        0.613873 
        958.148        0.622262 
        959.289        0.652292 
         960.43        0.682486 
        961.192        0.702793 
        962.712        0.743533 
        964.231        0.784531 
        966.507        0.845154 
        967.269        0.863954 
        967.651        0.872581 
        968.032        0.880381 
        968.292        0.884993 
        968.413          0.8869 
        968.543        0.888744 
        968.795        0.891578 
        969.046        0.893189 
        969.297        0.893186 
        969.548         0.89105 
        969.672        0.889049 
        969.799        0.886228 
        969.927        0.882448 
        970.054        0.877538 
        970.181        0.871468 
        970.308        0.864108 
        970.435        0.855346 
        970.504        0.849926 
        970.562        0.844966 
        970.689        0.832783 
        970.874        0.811527 
        971.059        0.785615 
        971.142        0.772197 
        971.245        0.753084 
        971.348        0.731115 
        971.451        0.704452 
        971.467        0.699752 
        971.523        0.681826 
        971.554        0.671434 
        971.585        0.660372 
        971.644        0.638975 
        971.703        0.620289 
        971.732        0.614543 
        971.762        0.612397 
        971.778        0.612444 
        971.792        0.612648 
        971.806        0.612865 
        971.821        0.613098 
        971.827        0.613189 
        971.833        0.613283 
        971.836         0.61333 
        971.839        0.613377 
        971.851        0.613562 
        971.866        0.613795 
         971.88        0.614012 
         971.91        0.614568 
        971.969        0.622912 
        972.037         0.64648 
        972.087         0.66652 
        972.137        0.686064 
         972.15        0.690868 
        972.237        0.721432 
        972.324        0.747394 
        972.499        0.790255 
        972.548        0.800861 
        972.673         0.82567 
        972.798        0.847884 
        972.923        0.868028 
        973.048        0.886306 
        973.173        0.903092 
        973.298        0.918536 
        973.423        0.932924 
        973.601        0.951783 
        973.673        0.958933 
        973.746        0.965851 
         973.89        0.978993 
        974.178         1.00249 
        974.466         1.02382 
        974.754         1.04308 
        975.022          1.0594 
        975.043         1.06065 
        975.331         1.07713 
         975.64          1.0931 
        976.259         1.12317 
        976.877         1.15179 
        977.495         1.17952 
         978.16         1.20794 
        978.732         1.23193 
        979.305         1.25613 
         980.45         1.30309 
        981.556         1.34728 
        982.739         1.39493 
        983.923         1.44343 
        985.964          1.5291 
        986.291         1.54313 
        986.618         1.55724 
        987.273         1.58561 
        987.851         1.61094 
        988.582         1.64344 
        989.312         1.67638 
        990.773         1.74325 
        992.234         1.81269 
        993.511         1.87553 
        993.695         1.88472 
         993.88         1.89389 
        994.248         1.91233 
        994.468         1.92338 
        994.984         1.94941 
        996.457         2.02559 
        997.574         2.08531 
        997.806         2.09789 
        998.447         2.13272 
        999.319         2.18067 
        1001.06         2.27888 
        1004.32         2.47042 
        1005.84         2.56304 
        1007.58         2.67262 
        1009.33         2.78485 
         1011.3         2.91336 
        1012.82         3.01216 
        1014.33         3.11158 
        1015.38         3.18001 
        1016.37         3.24062 
        1017.36         3.29628 
        1017.62         3.31356 
        1018.34         3.34287 
        1018.48         3.34715 
         1018.9         3.36527 
        1019.33         3.37335 
        1019.76         3.37608 
        1020.19         3.37272 
        1020.62         3.36157 
        1021.04         3.34093 
        1021.47         3.30917 
         1021.9         3.26471 
        1022.11         3.23534 
        1022.33         3.20571 
        1022.47         3.17929 
        1022.54         3.16591 
        1022.76         3.12652 
        1023.04         3.06018 
        1023.19         3.02587 
        1023.33         2.99201 
        1023.47         2.94498 
        1023.62         2.90129 
        1023.76          2.8593 
        1023.76         2.85843 
         1023.9         2.81237 
        1024.04         2.76225 
         1024.1         2.73982 
        1024.18          2.7096 
        1024.21         2.69738 
        1024.32         2.65008 
        1024.43         2.59814 
        1024.54         2.53487 
        1024.65          2.4534 
        1024.67         2.43926 
        1024.73         2.38227 
        1024.76         2.35134 
        1024.79         2.31983 
        1024.87         2.24284 
        1024.91         2.19911 
        1024.95         2.18142 
        1024.95         2.17956 
        1024.96         2.17666 
        1024.98          2.1753 
        1024.99         2.17535 
        1025.01         2.17607 
        1025.03         2.17685 
        1025.04         2.17759 
        1025.06         2.17837 
        1025.07         2.17915 
        1025.09         2.17989 
         1025.1         2.18067 
        1025.13         2.18222 
         1025.2         2.19875 
        1025.27         2.26745 
        1025.32         2.32418 
        1025.37         2.38278 
        1025.47         2.48949 
        1025.52         2.53675 
        1025.57         2.57975 
        1025.62         2.61884 
        1025.72         2.68712 
        1025.77         2.71886 
        1025.82         2.74735 
        1025.92         2.80333 
        1026.07         2.88024 
        1026.22         2.95306 
        1026.52         3.08868 
        1026.56         3.10824 
        1026.69         3.16475 
        1026.82         3.22434 
        1026.94         3.27524 
        1027.07         3.32424 
        1027.32         3.42569 
        1027.58         3.51569 
        1027.83         3.60806 
        1028.08         3.68688 
        1028.34         3.76646 
        1028.59         3.83516 
        1028.62         3.84242 
         1028.8          3.8913 
        1028.84         3.90343 
        1029.07         3.95894 
        1029.34         4.02526 
        1029.88         4.14426 
        1030.42         4.26038 
        1030.96         4.36926 
        1031.51         4.46546 
           1032         4.54444 
        1032.05         4.55242 
        1032.59         4.63341 
        1033.19         4.71795 
        1033.78         4.79498 
        1034.38         4.86755 
        1034.86         4.93126 
        1035.56         5.02614 
        1035.99         5.08558 
        1036.27         5.12422 
        1037.67         5.31253 
        1037.69         5.31576 
        1039.34         5.52471 
        1041.02         5.73234 
        1041.85         5.83538 
        1044.35         6.15491 
        1046.85          6.4872 
        1049.35          6.8324 
        1051.85         7.19591 
        1054.35         7.57501 
        1056.85         7.97025 
        1059.36         8.38438 
        1061.86         8.81377 
        1064.36         9.26173 
        1066.86         9.72615 
        1069.36          10.208 
        1071.86         10.7226 
        1074.36         11.2591 
        1076.29         11.6881 
        1076.86         11.8202 
        1078.98         12.3179 
        1079.36         12.4103 
        1082.44         13.1526 
         1085.9         14.0296 
        1089.32         14.9425 
        1089.37          14.956 
        1089.42         14.9703 
        1089.52         14.9985 
        1089.72          15.055 
        1090.12         15.1685 
        1090.67         15.3259 
        1090.92         15.3978 
        1092.52         15.8656 
        1094.37          16.422 
        1096.77         17.1692 
        1098.07         17.5864 
