# Koester WD models
# teff = 9500 K (value for the effective temperature for the model. Temperatures are given in K)
# logg = 8.75 log(cm/s2) (value for Log(G) for the model.)
#
# column 1: WAVELENGTH (ANGSTROM), Wavelength in Angstrom
# column 2: FLUX (ERG/CM2/S/A), Flux in erg/cm2/s/A
         899.23         158.186 
        901.025          164.41 
        902.629         170.157 
        904.235         176.082 
        905.651         181.458 
        907.446         188.481 
         908.45         192.514 
        909.241         195.743 
        910.032         199.021 
        911.193          203.92 
        911.613         205.721 
        912.034         207.535 
        912.465         209.431 
        912.875         211.372 
        913.037         212.192 
        913.241         212.827 
        913.284         213.014 
        913.478         213.876 
        913.531         214.111 
        913.755         215.108 
        913.822         215.407 
         914.08         216.569 
        914.165         216.949 
        914.499          218.46 
        914.575         218.805 
        915.071         221.064 
         915.54         223.807 
        915.609         223.538 
        915.643         223.695 
        915.677         223.852 
        915.813         225.126 
        915.949         256.219 
        916.085         271.564 
        916.221         238.873 
        916.285         227.896 
        916.357         227.024 
        916.429         227.362 
        916.574         229.318 
        916.718         277.452 
        916.862          325.13 
        916.922         328.384 
        917.006         312.556 
        917.036         301.716 
         917.15         252.879 
        917.264         231.391 
        917.378         231.856 
        917.493         232.482 
        917.607         256.896 
        917.721         323.694 
        917.835         393.532 
        917.949         428.516 
        918.063         424.834 
        918.177          378.37 
        918.291         304.397 
        918.405         248.718 
        918.438         241.077 
         918.52         237.362 
        918.602         237.763 
        918.766         242.748 
         918.93         326.814 
        918.937         332.368 
        919.094         475.772 
        919.251         584.204 
        919.409         645.468 
        919.566         615.648 
        919.723         487.085 
         919.88         342.179 
        920.037         252.386 
        920.131         245.335 
        920.173         245.547 
        920.194         245.652 
        920.215         245.758 
        920.299         246.181 
        920.468         286.833 
        920.636         436.556 
        920.804          663.14 
        920.972         884.242 
         921.14         1010.92 
        921.308         1052.93 
        921.477         997.135 
        921.645         843.945 
        921.813         641.743 
        921.981         439.396 
        922.149         297.229 
         922.23         262.923 
        922.318         256.528 
        922.405         256.983 
        922.579         264.785 
        922.696         324.203 
        922.753         371.204 
         922.81         428.347 
        922.924         567.215 
        923.038         732.001 
        923.152          909.89 
        923.266         1099.56 
        923.381         1275.08 
        923.495         1418.12 
        923.609         1516.06 
        923.723         1581.69 
        923.837          1617.8 
        923.951         1625.18 
        924.065          1603.3 
        924.179          1547.4 
        924.294          1458.7 
        924.408         1338.15 
        924.522         1200.77 
        924.636         1041.81 
         924.75         873.413 
        924.864         709.117 
        924.978          555.49 
        925.092          426.65 
        925.206         329.126 
        925.288         286.667 
        925.321         277.492 
        925.386         272.994 
        925.435         273.262 
        925.484         273.533 
         925.68         288.933 
        925.876         434.432 
        926.072         682.618 
        926.168         827.866 
        926.268         989.033 
        926.369         1157.89 
        926.469         1325.19 
        926.569         1486.25 
        926.669         1651.05 
         926.77         1804.17 
         926.87         1945.31 
         926.97         2068.23 
         927.07         2171.61 
         927.17         2260.09 
         927.27         2325.31 
        927.371          2376.3 
        927.471         2415.41 
        927.572         2441.49 
        927.672         2457.36 
        927.772         2461.16 
        927.872         2452.68 
        927.962         2434.17 
        927.972         2431.55 
        928.072         2394.62 
        928.182         2332.59 
        928.293         2259.89 
        928.403         2166.16 
        928.512         2048.64 
        928.622         1912.85 
        928.732         1757.88 
        928.842         1596.51 
        928.952          1428.1 
        928.979         1386.05 
        929.034         1299.82 
        929.061         1255.85 
        929.089         1211.49 
        929.137         1133.34 
        929.199         1032.13 
        929.261          935.62 
        929.386         754.064 
        929.476         630.094 
         929.51          587.12 
        929.543         545.556 
         929.61         469.985 
        929.717         370.083 
        929.743          351.28 
        929.758         341.598 
        929.769         334.969 
        929.821         310.802 
        929.827         308.795 
        929.883         299.261 
         929.91          298.97 
        929.939         299.138 
        929.954         299.227 
        929.968         299.311 
        929.982         299.395 
        929.996         299.479 
         930.01         299.562 
        930.024         299.646 
        930.038          299.73 
        930.052         299.814 
        930.081         299.988 
        930.137         300.783 
        930.201         313.761 
        930.247         335.739 
        930.249         336.942 
        930.251          338.18 
        930.301         373.086 
        930.326         393.145 
        930.402         467.287 
        930.478         555.566 
         930.63         764.931 
        930.633         769.414 
        930.782         1000.65 
        930.919         1237.21 
        930.931         1258.12 
         931.08         1513.94 
        931.148         1632.25 
        931.263         1825.57 
        931.379         2024.06 
        931.494         2209.28 
        931.608         2386.88 
        931.723          2553.2 
        931.838         2716.63 
        931.953         2866.59 
        932.068         2999.01 
        932.182         3118.83 
        932.297         3228.14 
        932.413         3319.97 
        932.528         3400.33 
        932.642          3471.9 
        932.757         3531.72 
        932.872         3579.34 
        932.987         3619.49 
        933.029         3632.65 
        933.101         3652.82 
        933.216         3679.21 
        933.265         3688.39 
        933.403         3707.24 
        933.432         3709.91 
        933.542            3715 
        933.652         3713.21 
        933.762         3705.85 
        933.872         3687.44 
        933.982         3657.03 
        934.092         3614.31 
        934.202         3560.84 
        934.312         3496.62 
        934.422          3424.3 
        934.533         3346.02 
        934.602         3292.04 
        934.634         3265.78 
        934.643         3258.24 
        934.652         3250.64 
        934.702         3207.31 
        934.802         3116.81 
        935.002         2915.57 
        935.118         2786.03 
        935.174         2723.62 
        935.202         2691.53 
         935.23         2658.89 
        935.342         2523.16 
        935.454         2380.48 
        935.567         2229.85 
        935.679         2070.95 
        935.791         1903.54 
        935.903          1725.9 
        936.015         1541.85 
        936.076          1442.3 
         936.11         1385.69 
        936.127         1357.33 
        936.144         1328.92 
        936.212         1215.03 
        936.348         991.521 
        936.368         959.832 
        936.484         780.372 
        936.601          615.78 
        936.605         610.587 
        936.717         479.187 
        936.829         384.195 
        936.894         352.879 
        936.938         344.564 
        936.941         344.366 
        936.944         344.177 
        936.973         343.854 
        936.987         343.948 
        936.994         343.995 
        937.001         344.042 
        937.015         344.136 
        937.029         344.231 
        937.043         344.328 
        937.058         344.429 
        937.072         344.523 
        937.086         344.617 
        937.101         344.721 
        937.115         344.815 
        937.143         345.003 
          937.2         345.911 
        937.314         387.167 
        937.428         486.818 
        937.493         561.934 
        937.542         625.504 
        937.593         697.964 
        937.694         851.215 
        937.794         1015.15 
        937.894         1186.41 
         937.95         1286.34 
        937.988         1353.72 
        937.994         1364.39 
            938         1375.13 
         938.05         1464.16 
         938.15         1639.92 
         938.35         1991.18 
         938.55         2317.27 
        938.587         2375.61 
        938.751         2622.11 
        938.914         2857.05 
        939.077         3079.88 
        939.147         3176.97 
        939.209         3259.94 
         939.24         3300.31 
        939.271         3340.14 
        939.395         3494.17 
        939.519         3645.98 
        939.643         3790.65 
        939.892         4068.24 
        940.016         4201.85 
         940.14         4328.55 
        940.264         4446.33 
        940.388         4555.47 
        940.512         4659.39 
        940.532          4675.6 
        940.636         4757.69 
         940.74         4835.79 
        940.845          4903.3 
        940.949         4967.55 
        941.157          5086.9 
        941.365         5194.31 
        941.573         5284.63 
        941.781         5365.78 
         941.99         5437.28 
        942.198          5499.2 
        942.406         5549.84 
        942.597         5586.63 
        942.614         5589.46 
        942.822         5618.42 
        943.048         5637.68 
        943.273         5640.54 
        943.498         5621.47 
        943.723          5586.6 
        943.948         5535.42 
        944.174         5464.64 
        944.399          5374.7 
        944.624         5267.54 
        944.849         5146.05 
        945.074         5013.42 
        945.258         4894.29 
        945.292          4871.1 
          945.3          4865.6 
        945.308         4860.11 
        945.358         4824.95 
        945.458         4757.75 
        945.658         4612.11 
        945.858         4451.23 
        946.058         4284.06 
        946.258         4101.38 
        946.459         3910.91 
         946.56         3811.35 
        946.659         3709.37 
         946.71         3655.49 
        946.859         3493.77 
        947.009         3319.28 
        947.158         3131.36 
        947.307         2928.37 
        947.458          2707.5 
        947.607         2469.14 
        947.757         2212.87 
        947.906         1937.27 
        947.975         1806.93 
        948.029         1703.07 
        948.056         1650.89 
        948.083         1598.42 
        948.191         1387.68 
        948.269         1238.41 
        948.299          1182.4 
        948.407         985.222 
        948.546         754.501 
        948.591         688.128 
        948.661         595.973 
        948.684          568.82 
        948.777         480.607 
        948.835         446.973 
        948.893         433.687 
        948.922         433.342 
        948.951         433.581 
        948.966         433.706 
         948.98         433.823 
        948.994         433.939 
        949.009         434.061 
        949.023         434.178 
        949.037         434.294 
        949.052         434.419 
        949.066         434.536 
        949.095         434.774 
        949.153         435.846 
         949.23          459.69 
        949.258         477.195 
        949.269         485.103 
         949.28         494.015 
         949.33         540.596 
         949.36         573.721 
         949.43         663.225 
          949.5         767.862 
         949.64         1011.07 
        949.781         1279.94 
        949.795          1307.5 
        949.879         1478.48 
        949.921          1565.4 
        949.963         1652.13 
        950.131         1996.78 
        950.299         2331.44 
        950.467         2644.45 
        950.635         2937.35 
        950.719         3076.23 
        950.804         3209.89 
        950.888         3338.26 
        951.056         3583.05 
        951.224          3812.2 
        951.392         4029.56 
         951.56          4239.3 
        951.728          4440.3 
        951.896         4643.75 
        952.065         4836.07 
        952.233         5023.44 
          952.4         5206.66 
        952.569         5382.77 
        952.738         5554.05 
        953.076         5895.95 
        953.415         6223.43 
        953.753         6540.54 
        954.091         6838.56 
         954.43         7108.86 
        954.768         7363.86 
        955.106         7582.42 
        955.445         7787.47 
        955.552         7850.62 
        955.783         7984.01 
        956.014          8109.8 
        956.476         8351.55 
        956.939         8581.48 
        957.401         8799.13 
        957.864         9002.01 
        958.326         9188.03 
        958.788         9355.51 
        959.137         9467.85 
        959.213         9490.75 
        959.251         9501.97 
        959.289         9513.03 
        959.441          9555.5 
        959.745         9632.56 
        960.278         9741.89 
        960.354         9754.65 
         960.43         9766.68 
        960.582         9788.76 
        960.886         9824.42 
        961.495         9860.83 
        962.103         9850.59 
        962.712         9794.92 
         963.32         9694.92 
        963.626          9629.7 
        963.929         9556.79 
        964.231          9474.7 
        964.835         9284.57 
         965.44         9060.45 
        966.044         8802.37 
        966.347         8659.05 
        966.649         8507.15 
        966.951         8339.58 
        967.253         8160.19 
        967.556         7964.88 
        967.683         7877.67 
        967.858          7753.7 
        968.032         7622.45 
        968.381         7333.11 
        968.555         7176.81 
        968.731         7010.78 
        968.863         6876.95 
        968.905         6832.08 
         969.08         6639.63 
        969.297         6379.57 
        969.406         6239.08 
        969.514         6090.45 
        969.536         6058.75 
        969.623         5933.02 
        969.731         5766.71 
        969.927         5443.85 
        970.122         5080.62 
        970.317         4670.39 
        970.511         4205.27 
        970.538         4136.19 
        970.706         3673.06 
        970.874          3156.7 
        971.042          2596.9 
        971.072         2491.05 
        971.211         2007.76 
        971.348         1532.13 
        971.386         1407.28 
        971.467         1152.97 
        971.485         1100.67 
        971.585         851.837 
        971.644         744.608 
        971.703         678.672 
        971.732         665.587 
        971.762         662.424 
        971.778         662.521 
        971.792         662.688 
        971.806         662.857 
        971.821         663.036 
        971.827         663.109 
        971.833         663.181 
        971.836         663.215 
        971.839         663.253 
        971.851         663.398 
        971.866         663.577 
         971.88         663.743 
         971.91         664.142 
        971.969         678.326 
        972.037         754.563 
        972.087         846.546 
        972.137         962.289 
         972.15         995.429 
        972.237         1246.33 
        972.324         1531.82 
        972.499         2142.18 
        972.548         2316.04 
        972.673         2748.39 
        972.798         3158.34 
        972.923         3539.54 
        973.048         3890.01 
        973.173          4211.3 
        973.298         4505.48 
        973.423         4780.56 
        973.548         5035.53 
        973.601         5138.92 
        973.673         5274.89 
        973.746         5405.61 
         973.89         5656.06 
        974.034         5888.41 
        974.178         6105.84 
        974.322         6314.82 
        974.466         6517.23 
         974.61         6714.78 
        974.754         6892.21 
        974.898         7063.71 
        975.022         7208.04 
        975.043         7232.48 
        975.176          7387.3 
        975.331         7558.36 
        975.485         7710.35 
         975.64         7859.13 
        975.949         8152.09 
        976.259         8425.09 
        976.568         8699.01 
        977.186         9270.68 
        977.541         9586.29 
        977.805         9816.79 
        977.983         9976.47 
        978.423         10343.6 
        978.643         10538.4 
        978.865         10745.7 
        979.085         10966.7 
        979.305         11206.3 
        979.745         11665.4 
        980.187         12123.2 
        980.407         12329.1 
        980.627         12546.2 
        980.848         12727.6 
        981.068           12906 
        981.288         13088.3 
        981.509         13263.4 
         981.95         13617.6 
        982.831         14290.7 
        983.503         14818.6 
        983.713         14993.2 
         983.75         15024.3 
        983.923         15171.3 
        984.344         15513.1 
        985.184         16172.3 
        985.271           16239 
        985.945         16769.4 
        986.281         17032.5 
        986.618         17293.2 
        986.955         17505.2 
        987.292         17675.6 
        987.628         17838.5 
        987.965         17992.2 
        988.302         18181.7 
        988.639         18407.9 
        988.975         18606.6 
        989.312         18773.4 
        989.649         18892.7 
        989.986         18950.6 
        990.323           19021 
        990.659         19119.9 
        990.996         19250.5 
        991.333           19452 
         991.67           19679 
        992.006         19965.7 
        992.343         20277.9 
         992.68         20664.4 
        992.827         20840.5 
        993.017         21076.7 
        993.353         21510.3 
        993.616         21870.8 
         993.88         22120.3 
        994.143         22354.6 
        994.406         22553.9 
        994.669         22648.6 
        994.932           22741 
        995.195         22859.1 
