# Koester WD models
# teff = 10750 K (value for the effective temperature for the model. Temperatures are given in K)
# logg = 7.75 log(cm/s2) (value for Log(G) for the model.)
#
# column 1: WAVELENGTH (ANGSTROM), Wavelength in Angstrom
# column 2: FLUX (ERG/CM2/S/A), Flux in erg/cm2/s/A
         899.23         810.443 
         900.38         829.029 
        901.128         841.303 
        902.681         867.315 
        904.235         894.028 
        905.444         915.303 
        907.343         949.603 
         908.45         970.127 
        909.241         985.018 
        910.032         1000.11 
        911.193         1022.63 
        911.613         1030.89 
        912.034         1039.21 
        912.465         1048.17 
         912.67         1053.25 
        912.875         1059.51 
        912.977         1063.23 
         913.08         1066.37 
        913.182         1063.11 
        913.284         1064.29 
        913.361         1066.03 
        913.386         1066.95 
        913.446         1067.73 
        913.488         1068.45 
        913.531         1069.31 
        913.581         1070.34 
        913.702         1074.86 
        913.822         1075.24 
        913.942         1081.86 
        913.959            1087 
        914.062         1080.94 
        914.165         1082.28 
        914.167         1082.32 
        914.268         1085.53 
        914.371         1146.58 
        914.473         1089.39 
        914.575         1090.75 
        914.678         1093.77 
         914.78         1228.49 
        914.882         1200.21 
        914.897         1171.12 
        914.984         1099.32 
        915.071         1101.06 
        915.245          1202.7 
        915.419         1477.09 
         915.54         1130.81 
        915.544         1126.37 
        915.594         1112.03 
        915.609         1112.33 
        915.643         1113.05 
        915.677         1113.77 
        915.813          1138.2 
        915.949         1754.04 
        916.085         2054.17 
        916.221         1393.39 
        916.285         1163.22 
        916.357         1128.21 
        916.429         1129.74 
        916.574         1170.92 
        916.718         2082.36 
        916.862         3003.76 
        917.006         2704.51 
         917.15         1575.91 
         917.21          1254.5 
        917.294         1148.35 
        917.378         1150.17 
        917.547         1264.66 
        917.715         2718.02 
        917.883         4482.71 
        918.051         4689.83 
        918.219         3211.52 
        918.387         1520.08 
        918.417         1349.34 
         918.51         1175.06 
        918.556         1175.94 
        918.602         1176.96 
        918.786         1360.14 
         918.97         3242.85 
        919.057         4666.99 
        919.154          6054.7 
        919.251         7022.15 
        919.446         7834.38 
         919.64         6387.52 
        919.834         3483.68 
        919.841         3377.68 
        920.028          1410.1 
        920.215         1213.14 
        920.403         1420.32 
         920.59         3479.85 
        920.777         6940.31 
        920.964         10263.9 
        921.151         12014.2 
        921.339         12379.4 
        921.526         11204.3 
        921.713         8692.63 
          921.9         5574.76 
        922.087          2657.3 
        922.144         2020.16 
        922.274         1280.09 
        922.405         1263.76 
        922.535          1286.3 
        922.665          2040.2 
         922.76         3218.15 
         922.78         3518.77 
        922.795         3757.82 
         922.81         4002.95 
         922.86         4852.13 
         922.96         6673.84 
         923.06         8533.35 
         923.16         10402.5 
        923.361         13972.1 
        923.561         16461.1 
        923.761         17706.4 
        923.961           17960 
        924.161         17170.9 
        924.362         15307.9 
        924.562           12697 
        924.762         9505.55 
        924.962         5998.93 
        925.162         2822.04 
        925.241         1947.29 
        925.363         1344.33 
        925.484         1338.05 
        925.605         1350.35 
        925.726         1964.53 
        925.847         3456.66 
        925.968         5454.53 
        926.052         6976.72 
        926.089         7667.15 
         926.21         9899.22 
        926.369         12719.7 
        926.527         15359.9 
        926.685         17968.8 
        926.843         20404.7 
        927.001         22487.5 
        927.159         24121.3 
        927.318         25212.2 
        927.476           25904 
        927.634         26241.3 
        927.718         26281.5 
        927.792         26215.3 
        927.834           26142 
         927.95         25802.2 
        928.066           25240 
        928.182         24429.7 
        928.299         23411.1 
        928.415         22283.4 
        928.531         20984.1 
        928.647         19572.9 
        928.669         19287.3 
        928.763         17985.9 
        928.774         17839.9 
        928.879         16378.3 
        928.917         15817.9 
        928.984         14827.1 
        929.089         13187.8 
        929.261         10263.9 
        929.325         9171.35 
        929.434         7243.66 
        929.543          5324.5 
        929.652         3540.36 
        929.719         2620.32 
        929.753         2236.84 
        929.755         2216.64 
        929.761         2157.27 
        929.769         2080.96 
        929.819         1698.53 
        929.827         1652.49 
        929.883         1466.22 
         929.91         1451.82 
        929.939         1452.23 
        929.954         1452.63 
        929.968            1453 
        929.982         1453.37 
        929.996         1453.75 
         930.01         1454.12 
        930.024         1454.49 
        930.038         1454.86 
        930.052         1455.24 
        930.081         1456.01 
        930.137         1473.04 
        930.201          1710.3 
        930.247         2061.48 
        930.249         2080.08 
        930.251         2098.91 
        930.301         2647.29 
        930.326         2958.38 
        930.402         4104.33 
        930.478         5410.23 
         930.63         8184.38 
        930.633         8239.64 
        930.782           10942 
        930.931         13626.3 
         931.08         16096.8 
        931.229         18468.5 
        931.379         20791.4 
        931.528         22972.9 
        931.677         25038.4 
        931.788         26559.7 
        931.814         26911.9 
        931.826         27072.8 
        931.838         27232.6 
        931.888         27889.7 
        931.988         29162.3 
        932.188         31442.3 
        932.389         33412.4 
        932.589           34960 
        932.789         36177.3 
        932.989         37048.2 
        933.189         37653.9 
        933.347         37938.8 
        933.375         37970.2 
        933.377         37972.4 
        933.389         37984.1 
        933.403         37996.6 
        933.432         38007.6 
         933.46         38010.8 
        933.542         37981.5 
        933.652         37854.6 
        933.762         37629.7 
        933.872         37297.9 
        933.982         36848.4 
        934.092         36289.2 
        934.202         35634.5 
        934.312         34877.6 
        934.422         34069.3 
        934.533           33228 
        934.602         32659.7 
        934.634         32386.7 
        934.643         32309.4 
        934.652         32231.5 
        934.702         31791.3 
        934.802         30884.9 
        935.002         28947.9 
        935.118         27728.6 
        935.174         27150.2 
        935.202         26855.4 
         935.23         26556.2 
        935.342         25306.8 
        935.454         24012.4 
        935.567           22642 
        935.679         21213.6 
        935.791         19690.4 
        935.903         18058.9 
        936.015           16325 
        936.076         15365.9 
         936.11         14812.9 
        936.127         14528.3 
        936.144         14241.2 
        936.212         13079.6 
        936.348         10637.9 
        936.368         10271.6 
        936.484         8087.81 
        936.601         5871.01 
        936.605         5796.24 
        936.717         3827.69 
        936.829         2347.67 
        936.894         1841.42 
        936.938         1676.49 
        936.941         1670.12 
        936.944         1665.51 
        936.973         1649.88 
        936.987         1650.08 
        936.994         1650.29 
        937.001          1650.5 
        937.015         1650.91 
        937.029         1651.33 
        937.043         1651.74 
        937.058         1652.19 
        937.072          1652.6 
        937.086         1653.02 
        937.101         1653.47 
        937.115         1653.88 
        937.143         1654.71 
          937.2         1673.19 
        937.314         2357.55 
        937.428          3890.3 
        937.493         5020.14 
        937.542         5943.67 
        937.593          6938.9 
        937.694         8914.08 
        937.794           10849 
        937.894         12735.8 
         937.95         13769.5 
        937.988           14452 
        937.994         14559.2 
            938         14667.1 
         938.05         15550.2 
         938.15         17228.2 
         938.25         18889.4 
         938.45         21965.3 
         938.65         24786.2 
        938.788         26612.2 
        938.809         26890.5 
        938.851         27440.9 
        938.914         28250.8 
         939.04         29818.2 
        939.271         32713.7 
        939.502         35476.7 
        939.651         37216.9 
        939.733         38152.1 
        939.924         40392.1 
         940.06         41970.1 
        940.196           43473 
        940.332         44903.1 
        940.468         46268.1 
        940.604         47601.7 
         940.69         48417.6 
         940.74         48873.8 
         940.79         49265.8 
        940.891           50022 
        941.091         51459.9 
        941.291         52799.2 
        941.491         53952.5 
        941.691         54982.9 
        941.891         55906.8 
        942.092         56717.4 
        942.292         57404.4 
        942.337           57537 
        942.492         57941.6 
        942.515         57993.2 
        942.692         58338.4 
         942.87         58568.4 
        942.998         58666.4 
        943.048         58688.1 
        943.098         58700.3 
        943.198         58695.9 
        943.398         58443.7 
        943.598         58000.4 
        943.798           57379 
        943.998         56591.1 
        944.199         55571.6 
        944.399           54364 
        944.599         53029.1 
        944.799         51596.6 
        944.999           50093 
        945.091           49377 
          945.2           48520 
        945.308         47641.6 
        945.524         45934.8 
         945.74         44147.5 
        945.956         42268.9 
        946.172         40331.8 
        946.389         38305.1 
        946.484           37427 
        946.605         36267.5 
        946.652         35801.3 
        946.821         34142.8 
        946.989         32394.8 
        947.158         30525.5 
        947.327         28506.3 
        947.496         26290.3 
        947.583         25071.5 
        947.665         23867.1 
        947.708         23204.6 
        947.833         21191.9 
        947.958         19015.6 
        948.083         16695.6 
        948.121         15957.9 
        948.208         14203.7 
        948.227         13806.1 
        948.333         11571.1 
        948.439          9258.9 
        948.546          6927.4 
        948.652         4769.41 
        948.727         3503.03 
        948.739         3328.93 
        948.758         3074.21 
        948.761         3036.47 
        948.777         2843.88 
        948.827          2367.4 
        948.835         2308.64 
        948.893         2055.51 
        948.922         2038.56 
        948.951         2039.44 
        948.966         2039.98 
         948.98         2040.48 
        948.994         2040.98 
        949.009         2041.51 
        949.023         2042.01 
        949.037         2042.51 
        949.052         2043.04 
        949.066         2043.54 
        949.095         2044.58 
        949.153         2064.86 
         949.23         2472.28 
        949.258          2747.1 
        949.269         2867.81 
         949.28         3000.68 
         949.33         3706.99 
         949.36         4202.45 
         949.43         5535.96 
          949.5         7033.71 
         949.64         10201.1 
        949.781         13318.6 
        949.879         15438.6 
        949.921         16317.9 
        949.963         17176.9 
        950.047         18851.2 
        950.215         21994.7 
        950.383         24874.1 
        950.551         27519.9 
        950.719         29975.5 
        950.838         31586.5 
        950.888         32248.4 
        950.938         32898.4 
        951.038         34162.6 
        951.238         36581.6 
        951.339         37748.7 
        951.438         38913.7 
        951.638         41198.8 
        951.689         41765.6 
        952.039         45777.1 
        952.389         49689.9 
        952.738         53497.2 
        953.088         57532.9 
        953.438         61583.4 
        953.787         65714.6 
        954.137         69721.1 
        954.487         73422.2 
        954.662         75214.8 
        954.837         76984.4 
        955.012         78511.2 
        955.186         80018.9 
        955.361         81497.6 
        955.409         81893.2 
        955.537         82946.2 
        955.712         84367.8 
        956.014         86722.4 
         956.62         91194.2 
        957.224         95324.7 
        957.526         97234.2 
         957.83         99011.4 
        958.132          100649 
        958.434          102138 
        958.736          103466 
        958.789          103680 
         959.04          104614 
        959.289          105420 
        959.788          106640 
        960.146          107191 
        960.288          107331 
         960.43          107425 
        960.714          107490 
        960.998          107383 
        961.282          107114 
        961.567          106690 
        961.851          106122 
        962.135          105417 
        962.419          104569 
        962.988          102515 
        963.556          100031 
        964.019         97771.1 
        964.125         97217.5 
        964.231         96647.6 
        964.443         95496.2 
        964.867         93096.7 
        965.292         90539.8 
        965.716         87815.1 
         966.14         85003.6 
        966.565         82050.5 
        966.795         80363.2 
        966.989         78902.4 
        967.104         78029.3 
        967.414         75633.2 
        967.723         73088.2 
        968.032         70457.1 
        968.341         67596.7 
        968.651         64621.3 
         968.96         61410.3 
        969.185         58894.8 
        969.241         58249.8 
        969.269         57918.1 
        969.297         57584.8 
        969.409         56215.7 
        969.633         53311.3 
        969.788         51160.2 
        969.857         50155.2 
        969.927         49122.9 
        970.065         46960.2 
        970.203         44640.8 
        970.341         42148.9 
        970.479         39447.7 
        970.617         36495.3 
        970.636           36068 
        970.755         33198.8 
        970.874         30096.7 
        970.993         26711.3 
        971.112         22989.5 
        971.115         22892.9 
        971.232         18900.6 
        971.348         14569.2 
        971.464           10063 
        971.535         7437.19 
        971.567         6366.97 
        971.575         6109.61 
         971.58          5956.3 
        971.585          5808.8 
        971.635         4480.29 
        971.644         4280.39 
        971.703         3322.77 
        971.732         3093.47 
        971.762         3010.62 
        971.778         3005.53 
        971.792         3005.87 
        971.806         3006.56 
        971.821         3007.31 
        971.827         3007.61 
        971.833         3007.91 
        971.836         3008.06 
        971.839          3008.2 
        971.851          3008.8 
        971.866         3009.55 
         971.88         3010.25 
         971.91         3014.32 
        971.969          3275.9 
        972.037         4372.91 
        972.087         5674.78 
        972.137         7290.95 
         972.15         7747.26 
        972.237         11057.9 
        972.324         14481.2 
        972.499         20930.5 
        972.548           22594 
        972.673         26534.8 
        972.798         30076.7 
        972.923           33272 
        973.048         36162.6 
        973.173         38770.7 
        973.298           41174 
        973.423         43410.8 
        973.548         45501.6 
        973.601         46347.3 
        973.673         47462.6 
        973.746         48550.5 
         973.89         50641.8 
        974.034         52610.4 
        974.178         54481.8 
        974.466         58065.1 
        974.754           61420 
        975.022         64298.3 
        975.043         64523.3 
        975.176         65964.3 
        975.331         67583.5 
        975.485         69023.6 
         975.64         70446.8 
        975.949         73303.4 
        976.259         76003.3 
        976.568         78796.8 
        976.877         81674.2 
        977.186         84762.1 
        977.805         90661.3 
        978.114         93637.1 
        978.423         96603.7 
        978.732         99797.1 
        978.778          100300 
        979.042          103348 
        979.305          106773 
        979.568          110002 
        979.831          113571 
        980.094          116990 
        980.358          119978 
        980.621          123185 
        980.884          125854 
        981.147          128496 
        981.674          133726 
        982.726          143826 
        983.635          152766 
        983.779          154282 
        983.923          155828 
        984.212          158798 
        984.788          164634 
        985.263          169171 
        985.941          175912 
         986.28          179254 
        986.618          182565 
        986.957          185158 
        987.296          187132 
        987.634          188990 
        987.973          190708 
        987.989          190788 
        988.312          192990 
        988.651          195791 
        988.981          198100 
        989.312          199959 
        989.643          201139 
        989.974          201404 
        990.305          201818 
        990.635          202679 
          990.8          203082 
        990.966          203864 
        991.132          205035 
        991.297          206207 
        991.462          207368 
        991.628          208768 
        991.793          210577 
        991.958          212367 
