# Koester WD models
# teff = 10250 K (value for the effective temperature for the model. Temperatures are given in K)
# logg = 9.25 log(cm/s2) (value for Log(G) for the model.)
#
# column 1: WAVELENGTH (ANGSTROM), Wavelength in Angstrom
# column 2: FLUX (ERG/CM2/S/A), Flux in erg/cm2/s/A
         899.23         689.564 
        901.408         720.034 
        902.939         742.138 
        903.587         751.673 
        904.235         761.312 
        905.532         780.918 
        907.006         803.764 
        908.124         821.457 
         908.45         826.688 
        909.241         839.487 
        910.032         852.459 
        911.193          871.82 
        911.613         878.927 
        912.034          886.08 
        912.454         895.109 
        912.465         895.366 
         912.67         900.924 
        912.875         906.846 
        912.977         910.154 
         913.08         912.457 
        913.182         912.127 
        913.284         912.846 
        913.361         913.795 
        913.446         913.927 
        913.488         913.971 
        913.531          914.53 
        913.581         915.906 
        913.702         917.684 
        913.822           917.6 
        913.942         922.931 
        913.959         924.191 
        914.062         922.491 
        914.165         922.661 
        914.167         922.698 
        914.268          926.66 
        914.371         937.401 
        914.473         928.953 
        914.575         929.695 
        914.678         932.755 
         914.78         956.137 
        914.882         951.123 
        914.897         946.999 
        914.984         937.169 
        915.071         938.497 
        915.245         957.127 
        915.419         1005.75 
         915.54         949.691 
        915.544         949.204 
        915.594         947.988 
        915.609         948.208 
        915.643         948.811 
        915.677         949.427 
        915.813         954.881 
        915.949         1060.13 
        916.085         1115.42 
        916.221         998.458 
        916.285         964.758 
        916.357         961.849 
        916.429         963.171 
        916.574         970.309 
        916.718         1127.93 
        916.862         1310.86 
        917.006         1265.35 
         917.15         1047.17 
         917.21         990.937 
        917.294         979.178 
        917.378         980.742 
        917.547         997.826 
        917.715         1285.01 
        917.883         1632.89 
        918.051         1682.73 
        918.219         1409.27 
        918.387         1059.69 
        918.417         1026.19 
         918.51         1002.06 
        918.556         1002.93 
        918.602          1003.8 
        918.786         1033.88 
         918.97         1444.91 
        919.057         1729.28 
        919.154          2039.3 
        919.251          2273.2 
        919.446         2430.68 
         919.64          2141.3 
        919.834         1522.59 
        919.841         1500.43 
        920.028         1063.96 
        920.215         1034.95 
        920.403         1071.66 
         920.59         1542.85 
        920.777          2326.8 
        920.964         3058.83 
        921.151         3500.21 
        921.339         3646.35 
        921.526         3424.74 
        921.713         2825.23 
          921.9         2075.64 
        922.087         1381.66 
        922.144         1233.03 
        922.274         1077.59 
        922.405         1078.54 
        922.535         1082.87 
        922.665         1245.31 
         922.76         1526.73 
         922.78         1598.27 
        922.795         1655.18 
         922.81         1714.18 
         922.86         1922.99 
         922.96         2398.44 
         923.06         2901.57 
         923.16         3461.97 
         923.26         4017.41 
        923.461         4920.96 
        923.661         5441.33 
        923.861         5713.68 
        924.061         5710.19 
        924.261         5372.41 
        924.462         4696.59 
        924.662         3794.92 
        924.862         2776.52 
        925.062         1846.86 
        925.262         1225.02 
          925.4         1140.75 
        925.442         1141.65 
        925.463         1142.09 
        925.484         1142.54 
        925.568         1144.33 
        925.736         1299.57 
        925.904          1872.1 
        926.072         2679.61 
        926.112         2890.63 
         926.24         3607.15 
        926.369          4353.4 
        926.497         5089.35 
        926.625         5820.62 
        926.753         6505.11 
        926.881         7092.02 
        927.009         7558.61 
        927.137         7916.84 
        927.265         8184.45 
        927.394         8386.32 
        927.522         8535.61 
         927.65         8633.44 
        927.778         8665.39 
        927.906         8624.68 
        928.034         8510.07 
        928.102         8412.09 
        928.142            8343 
        928.162         8305.18 
        928.182         8265.18 
        928.262         8111.28 
        928.423         7667.47 
        928.583         7070.12 
        928.743         6395.84 
        928.903         5610.38 
        928.985         5180.27 
        929.037         4901.17 
        929.063         4757.75 
        929.089         4613.55 
        929.125         4411.24 
        929.193         4021.24 
        929.261         3636.17 
        929.398         2900.47 
        929.493         2422.67 
        929.525          2268.8 
        929.534         2226.53 
        929.543         2185.26 
        929.593         1965.71 
        929.617         1865.44 
        929.655         1719.61 
        929.693          1586.4 
        929.769         1372.83 
        929.827         1274.24 
        929.883         1241.31 
         929.91         1240.33 
        929.939         1240.98 
        929.954         1241.32 
        929.968         1241.64 
        929.982         1241.96 
        929.996         1242.29 
         930.01         1242.61 
        930.024         1242.93 
        930.038         1243.25 
        930.052         1243.57 
        930.081         1244.24 
        930.137         1247.14 
        930.201         1293.23 
        930.247         1376.12 
        930.249         1380.52 
        930.251         1384.96 
        930.301         1520.43 
        930.326         1598.16 
        930.402         1883.58 
        930.478         2222.18 
         930.63          3003.1 
        930.633         3019.48 
        930.782         3872.64 
        930.931         4780.25 
         931.08         5664.39 
        931.229         6540.23 
        931.379         7376.02 
        931.528         8197.48 
        931.677         9026.58 
        931.788         9615.82 
        931.814          9748.9 
        931.826         9809.43 
        931.838          9869.5 
        931.888           10113 
        931.988         10570.8 
        932.088         10972.1 
        932.188           11339 
        932.288         11672.7 
        932.389         11941.3 
        932.489         12169.4 
        932.589         12376.6 
        932.789         12724.5 
        932.989         12989.7 
        933.189         13190.3 
        933.347           13304 
        933.375         13319.9 
        933.377           13321 
        933.389         13327.4 
        933.403         13334.6 
        933.432         13347.3 
         933.46           13358 
        933.542         13380.3 
        933.652           13393 
        933.762         13393.2 
        933.872           13361 
        933.982         13288.3 
        934.092         13170.3 
        934.202         13011.1 
        934.312         12809.6 
        934.413         12590.8 
        934.422           12570 
        934.533         12290.9 
        934.652           11941 
        934.771         11544.3 
         934.89         11138.8 
        935.009         10688.8 
        935.026         10621.3 
        935.128           10210 
         935.23         9781.57 
        935.332         9326.48 
        935.434         8846.25 
        935.537         8343.16 
        935.639         7820.46 
        935.741         7292.26 
        935.843         6738.12 
        935.945         6160.03 
         935.95         6131.04 
        936.047         5574.35 
        936.144         5017.69 
        936.338          3895.1 
        936.464         3178.04 
        936.532         2805.79 
        936.601         2452.57 
        936.645         2241.43 
        936.714         1941.78 
        936.737         1851.94 
        936.829          1561.1 
        936.887         1451.82 
        936.944         1412.61 
        936.973         1411.36 
        937.001         1412.07 
        937.015         1412.43 
        937.029         1412.79 
        937.043         1413.15 
        937.058         1413.53 
        937.072         1413.89 
        937.086         1414.25 
        937.101         1414.63 
        937.115            1415 
        937.143         1415.71 
          937.2         1419.18 
        937.314         1572.33 
        937.428         1958.33 
        937.493         2246.55 
        937.542         2488.13 
        937.593         2759.51 
        937.694          3326.6 
        937.794         3921.78 
        937.894         4527.25 
         937.95          4872.2 
        937.988         5104.99 
        937.994          5141.4 
            938         5178.19 
         938.05         5483.96 
         938.15         6092.11 
         938.35         7321.48 
         938.55         8475.14 
        938.587         8689.46 
        938.751         9601.71 
        938.914         10470.4 
        939.077         11294.6 
        939.147         11650.3 
        939.209           11958 
         939.24         12108.2 
        939.271         12256.7 
        939.395         12842.6 
        939.519           13449 
        939.643         14028.7 
        939.768         14581.6 
        939.892         15125.2 
        940.016         15643.8 
         940.14         16135.1 
        940.264         16582.4 
        940.388         16977.5 
        940.512         17348.3 
        940.532         17405.8 
        940.636         17694.7 
         940.74         17968.1 
        940.949         18472.1 
        941.157         18924.9 
        941.365         19329.2 
        941.573         19681.1 
        941.781         19994.6 
         941.99         20269.7 
        942.198         20508.4 
        942.406         20709.2 
        942.614         20872.7 
        942.822         20999.1 
        942.979           21070 
        943.014         21082.5 
        943.031         21088.3 
        943.048         21093.9 
        943.116         21114.5 
        943.252         21139.1 
        943.524         21110.3 
        943.796         20997.8 
        943.932           20908 
        944.068         20786.7 
        944.205         20604.6 
        944.341         20392.6 
        944.477           20149 
        944.613         19872.6 
        944.749         19566.9 
        944.885         19238.7 
        945.007           18921 
        945.021         18883.4 
        945.157           18503 
        945.308         18052.8 
        945.608         17139.6 
        945.908         16152.5 
        946.058         15676.2 
        946.208         15168.9 
        946.359           14623 
        946.509         14059.4 
        946.659         13464.2 
        946.809         12857.5 
        946.959         12230.3 
        946.962         12217.3 
         947.06         11783.7 
        947.109         11561.7 
        947.158         11333.7 
        947.354         10367.7 
        947.551         9305.52 
        947.747         8147.53 
        947.803         7798.41 
        947.943         6896.55 
        948.083         5974.81 
        948.223         5033.96 
        948.363         4103.83 
        948.461         3474.16 
        948.482         3343.28 
        948.503         3214.51 
        948.546         2967.25 
         948.63         2514.76 
        948.661         2366.83 
        948.777         1923.64 
        948.835         1796.54 
        948.893         1748.97 
        948.922         1747.37 
        948.951         1748.26 
        948.966         1748.72 
         948.98         1749.15 
        948.994         1749.58 
        949.009         1750.05 
        949.023         1750.48 
        949.037         1750.91 
        949.052         1751.38 
        949.066         1751.81 
        949.095          1752.7 
        949.153         1756.99 
         949.23         1844.21 
        949.258          1909.6 
        949.269         1940.24 
         949.28         1973.93 
         949.33         2153.46 
         949.36         2280.13 
         949.43         2620.95 
          949.5          3015.6 
         949.64         3909.87 
        949.781          4873.9 
        949.795         4971.32 
        949.879         5563.54 
        949.921         5861.55 
        949.963         6159.63 
        950.131         7336.78 
        950.299          8486.2 
        950.467         9576.27 
        950.635         10600.8 
        950.719         11090.9 
        950.804         11562.9 
        950.888           12021 
        951.056         12896.3 
        951.224         13726.1 
        951.392         14533.2 
         951.56           15332 
        951.728         16100.3 
        951.896           16849 
        952.065         17557.7 
        952.401         19006.1 
        952.738         20462.2 
        953.075         21941.5 
        953.413         23366.3 
         953.75           24726 
        953.918         25382.4 
        954.087         25973.5 
        954.256         26494.1 
        954.425         26995.2 
        954.593         27482.8 
        954.762         27957.7 
        954.859         28220.3 
        955.099         28832.2 
        955.437         29661.4 
        956.014         30979.6 
        956.592         32231.5 
        957.169           33392 
        957.747         34441.3 
        958.324         35366.8 
        958.514           35642 
        958.901         36152.8 
        959.289         36593.9 
        959.676         36949.5 
        959.697         36966.8 
        960.063         37235.4 
         960.43         37437.7 
        960.796         37574.7 
        961.162         37642.9 
        961.529         37644.1 
        961.895         37576.3 
        962.261         37442.1 
        962.628         37243.3 
        962.994         36977.5 
         963.36         36650.8 
        963.727         36261.8 
        963.955         35993.5 
        964.093         35820.8 
        964.231         35635.7 
        964.507         35247.1 
         965.06         34379.1 
        965.612         33394.2 
        966.165           32300 
        966.441         31706.2 
        966.717         31077.3 
        966.993         30397.6 
        967.269         29686.1 
        967.546         28928.5 
        967.612         28739.4 
        967.822           28116 
        968.032         27457.7 
        968.242         26751.9 
        968.452         26012.5 
        968.663         25228.2 
        968.873         24390.8 
        969.083           23495 
        969.247         22750.8 
        969.289         22553.1 
        969.293         22534.1 
        969.297         22515.1 
        969.347         22273.6 
        969.447         21776.5 
        969.647         20708.9 
        969.768         20017.9 
        969.847         19548.2 
        969.927         19062.1 
        970.085         18015.6 
        970.243         16881.3 
        970.401         15649.2 
        970.559         14298.5 
        970.717         12810.1 
        970.874         11197.6 
        971.031         9466.09 
        971.189         7623.51 
        971.298         6321.67 
        971.344         5772.43 
        971.346          5748.8 
        971.348         5725.18 
        971.398         5143.64 
        971.411         4995.32 
        971.467         4378.56 
        971.498         4060.29 
        971.585         3276.02 
        971.644         2879.09 
        971.703          2640.8 
        971.732         2595.32 
        971.762         2585.01 
        971.778         2585.43 
        971.792         2586.03 
        971.806         2586.64 
        971.821         2587.28 
        971.827         2587.54 
        971.833          2587.8 
        971.836         2587.93 
        971.839         2588.06 
        971.851         2588.58 
        971.866         2589.23 
         971.88         2589.83 
         971.91         2591.24 
        971.969         2639.69 
        972.037         2915.28 
        972.087         3256.23 
        972.137         3683.33 
         972.15         3803.62 
        972.237         4710.72 
        972.324         5722.95 
        972.499         7819.77 
        972.548         8403.57 
        972.673         9844.15 
        972.798         11198.6 
        972.923         12458.6 
        973.048         13623.2 
        973.173         14699.3 
        973.298         15697.8 
        973.423         16636.6 
        973.548         17513.8 
        973.601         17870.5 
        973.673         18343.6 
        973.746         18801.4 
         973.89         19683.9 
        974.034         20508.3 
        974.178         21282.2 
        974.322         22032.8 
        974.466         22768.5 
         974.61         23488.2 
        974.754         24137.3 
        975.043         25394.9 
        975.187         26018.5 
        975.331         26616.4 
        975.475         27151.5 
        975.556         27449.5 
        975.598         27603.2 
        975.619           27680 
         975.64         27756.7 
        975.724         28062.9 
        975.892         28675.5 
        976.228           29834 
        976.565         30988.7 
        977.237         33438.5 
         977.86         35582.9 
         977.91         35762.6 
        978.221         36797.2 
        978.582         38029.9 
        978.944         39382.4 
        979.305         40904.5 
        979.666         42374.1 
        979.846         43179.6 
        980.027           43970 
        980.208         44608.1 
        980.389         45268.2 
        980.569         45954.3 
         980.75         46580.1 
         980.93         47135.5 
        981.111         47698.5 
        981.291         48271.5 
        981.472           48820 
        981.653         49367.6 
        982.014         50484.1 
        982.736         52568.3 
        982.996         53320.7 
        983.084         53578.6 
        983.459         54701.4 
        983.923         56162.9 
        984.851         58970.5 
        985.735         61526.2 
        986.177         62832.2 
        986.618         64105.5 
         987.06         65081.9 
        987.502         65879.2 
        987.943         66609.6 
        988.386         67539.2 
         989.14         69178.8 
        989.226         69331.2 
        989.269         69406.9 
        989.312         69482.3 
        989.484         69780.7 
        989.656         69899.8 
        989.829         69992.2 
        990.173         70157.7 
        990.517         70488.2 
        990.689           70655 
        990.861         70816.8 
        991.033         71161.8 
        991.206         71533.4 
        991.378         71903.8 
         991.55           72272 
