# Koester WD models
# teff = 10500 K (value for the effective temperature for the model. Temperatures are given in K)
# logg = 8 log(cm/s2) (value for Log(G) for the model.)
#
# column 1: WAVELENGTH (ANGSTROM), Wavelength in Angstrom
# column 2: FLUX (ERG/CM2/S/A), Flux in erg/cm2/s/A
         899.23         591.034 
        900.313         604.009 
        902.274         628.149 
        904.235         653.128 
        906.196          678.97 
        907.075         690.833 
        908.158         705.699 
         908.45         709.752 
        909.241         720.842 
        910.032         732.085 
        911.193         748.868 
        911.613         755.025 
        912.034         761.227 
        912.465         767.881 
         912.67         771.537 
        912.875         775.867 
        912.977         778.399 
         913.08         780.419 
        913.182         778.961 
        913.284         779.935 
        913.361          781.22 
        913.446         782.483 
        913.488         783.036 
        913.531          783.68 
        913.581         784.443 
        913.702         787.374 
        913.822         788.097 
        913.942          792.08 
        913.959          794.71 
        914.062         792.197 
        914.165         793.353 
        914.167         793.384 
        914.268         795.495 
        914.371         826.867 
        914.473         798.492 
        914.575         799.674 
        914.678         801.709 
         914.78          872.16 
        914.882         856.593 
        914.897         842.176 
        914.984         806.051 
        915.071         807.364 
        915.245         859.772 
        915.419         1006.79 
         915.54         824.253 
        915.544         822.274 
        915.594         815.548 
        915.609         815.781 
        915.643         816.315 
        915.677         816.852 
        915.813         829.597 
        915.949         1165.02 
        916.085         1335.64 
        916.221         968.905 
        916.285         844.752 
        916.357         827.631 
        916.429         828.777 
        916.574         850.247 
        916.718         1356.05 
        916.862         1887.05 
        917.006         1715.05 
         917.15         1074.59 
         917.21         897.377 
        917.294         842.673 
        917.378          844.03 
        917.547         904.245 
        917.715         1715.97 
        917.883          2746.3 
        918.051         2868.14 
        918.219          1997.9 
        918.387          1046.7 
        918.417         954.406 
         918.51         862.587 
        918.556         863.288 
        918.602         864.048 
        918.786         961.711 
         918.97         2013.78 
        919.057          2844.1 
        919.154         3684.87 
        919.251         4285.42 
        919.446         4869.34 
         919.64         3956.36 
        919.834         2156.98 
        919.841         2095.83 
        920.028         993.579 
        920.215         891.088 
        920.403          1000.8 
         920.59         2153.82 
        920.777         4299.08 
        920.964         6562.44 
        921.151         7852.35 
        921.339         8132.17 
        921.526         7235.28 
        921.713         5440.83 
          921.9         3410.64 
        922.087         1686.92 
        922.144         1334.47 
        922.274         936.063 
        922.405          928.95 
        922.535          940.69 
        922.665          1347.9 
         922.76         2006.91 
         922.78         2180.25 
        922.795         2316.94 
         922.81         2460.54 
         922.86         2967.82 
         922.96         4097.58 
         923.06         5297.17 
         923.16         6555.97 
         923.26         7844.02 
        923.361         9043.23 
        923.461         10067.3 
        923.561         10795.3 
        923.661           11327 
        923.761           11660 
        923.861         11821.3 
        923.961         11803.7 
        924.061         11607.1 
        924.161         11210.5 
        924.261         10627.2 
        924.362         9878.86 
        924.462         9019.36 
        924.562         8061.14 
        924.662         7019.67 
        924.762         5914.58 
        924.862          4788.6 
        924.962         3675.16 
        925.062         2650.77 
        925.162          1793.8 
        925.262          1217.1 
        925.363         986.561 
          925.4         983.007 
        925.442         983.783 
        925.463         984.173 
        925.484         984.563 
        925.568         986.124 
        925.736         1373.46 
        925.904         2683.29 
        926.072         4521.44 
        926.112         4995.85 
         926.24         6525.81 
        926.369         8055.61 
        926.497         9531.72 
        926.625         10978.8 
        926.753         12381.8 
        926.881         13664.9 
        927.009         14745.3 
        927.137         15619.7 
        927.265         16257.3 
        927.394         16709.3 
        927.522         17012.4 
         927.65           17171 
        927.778         17172.2 
        927.906         17006.6 
        928.034         16675.8 
        928.102         16412.7 
        928.142         16234.5 
        928.162         16138.7 
        928.182         16038.6 
        928.262         15598.5 
        928.423         14559.6 
        928.583         13310.4 
        928.743         11867.6 
        928.903         10314.9 
        928.985         9478.56 
        929.037         8930.45 
        929.063         8649.21 
        929.089          8365.5 
        929.125         7965.16 
        929.193         7184.23 
        929.261         6405.52 
        929.398         4865.67 
        929.493         3807.48 
        929.525         3462.91 
        929.534         3367.38 
        929.543         3272.63 
        929.593         2763.69 
        929.617         2534.67 
        929.655         2196.22 
        929.693         1890.81 
        929.769         1407.59 
        929.827         1176.86 
        929.883         1076.88 
         929.91         1069.73 
        929.939         1070.15 
        929.954         1070.45 
        929.968         1070.73 
        929.982         1071.01 
        929.996         1071.29 
         930.01         1071.57 
        930.024         1071.85 
        930.038         1072.13 
        930.052          1072.4 
        930.081         1072.99 
        930.137         1081.98 
        930.201         1208.95 
        930.247         1400.54 
        930.249         1410.24 
        930.251         1420.06 
        930.301         1722.68 
        930.326         1897.36 
        930.402         2551.42 
        930.478         3326.98 
         930.63          5053.5 
        930.633         5088.66 
        930.782         6849.05 
        930.931         8653.17 
         931.08         10351.4 
        931.229         11994.7 
        931.379           13611 
        931.516         15004.9 
        931.528         15125.9 
        931.677         16579.2 
        931.838           18115 
        931.999         19569.2 
         932.16         20857.7 
        932.321         22039.8 
        932.483         22965.8 
        932.644         23764.1 
        932.805         24401.8 
        932.851         24551.2 
        932.966         24884.3 
        932.989         24943.8 
        933.127         25251.5 
        933.265         25474.2 
        933.403         25608.3 
        933.432         25619.2 
        933.542         25614.3 
        933.652         25542.7 
        933.762         25407.3 
        933.872         25191.5 
        933.982           24890 
        934.092           24502 
        934.202         24044.1 
        934.312         23517.9 
        934.413         22990.6 
        934.422         22943.3 
        934.533         22340.7 
        934.652         21638.8 
        934.771         20879.8 
         934.89         20109.5 
        935.009         19265.9 
        935.026         19139.8 
        935.128           18386 
         935.23         17632.4 
        935.332         16831.8 
        935.434         16000.8 
        935.537         15137.8 
        935.639         14232.2 
        935.741         13287.8 
        935.843         12284.7 
        935.945         11222.7 
         935.95           11169 
        936.047         10123.9 
        936.144         9045.05 
        936.338         6758.01 
        936.464          5238.7 
        936.532         4418.24 
        936.601         3624.52 
        936.645         3136.85 
        936.714         2449.52 
        936.737         2244.64 
        936.829         1594.77 
        936.887         1341.29 
        936.944         1226.33 
        936.973         1218.53 
        937.001         1219.05 
        937.015         1219.36 
        937.029         1219.68 
        937.043         1219.99 
        937.058         1220.32 
        937.072         1220.63 
        937.086         1220.95 
        937.101         1221.28 
        937.115          1221.6 
        937.143         1222.22 
          937.2         1232.09 
        937.314          1603.4 
        937.428         2461.55 
        937.493         3117.51 
        937.542         3671.45 
        937.593         4279.19 
        937.694         5520.94 
        937.794         6773.34 
         937.95         8716.22 
        937.988         9178.79 
        937.994         9251.42 
            938         9323.96 
         938.05         9918.13 
         938.15           11076 
         938.25         12222.5 
         938.45         14368.6 
         938.65         16351.4 
        938.788         17639.3 
        938.809         17836.8 
        938.851         18226.4 
        938.914         18794.6 
         939.04         19897.2 
        939.271         21943.2 
        939.502         23894.4 
        939.733         25802.6 
        939.965         27711.8 
        940.081           28632 
        940.196         29530.7 
        940.312         30377.1 
        940.427         31190.1 
        940.543         31970.4 
        940.576           32190 
        940.658         32715.6 
         940.74         33223.6 
        940.905         34077.8 
        941.069         34880.5 
        941.233         35622.5 
        941.397           36298 
        941.561         36900.5 
        941.725           37455 
        941.889         37958.3 
        942.054         38408.2 
        942.218         38806.2 
        942.382         39137.6 
        942.546         39405.9 
         942.71         39611.4 
        942.874         39752.5 
        942.998         39818.7 
         943.03         39829.7 
        943.039         39832.3 
        943.048         39834.8 
        943.098         39844.8 
        943.198         39845.8 
        943.398         39689.3 
        943.598         39407.2 
        943.798         39008.2 
        943.998         38495.2 
        944.199         37819.1 
        944.399         37023.4 
        944.599         36125.2 
        944.691         35679.4 
        944.799         35149.1 
        944.845         34923.8 
        944.999         34141.9 
        945.153         33311.2 
        945.308         32433.8 
        945.616         30709.9 
        945.924         28850.5 
        946.232         26883.7 
        946.541         24830.5 
        946.694           23766 
        946.849           22672 
        947.003         21530.2 
        947.158         20316.2 
        947.313         19005.5 
        947.468         17591.2 
        947.471         17562.4 
        947.623         16053.7 
        947.624         16038.2 
        947.777         14384.6 
         947.93         12577.5 
        948.083         10642.9 
        948.233         8611.73 
        948.236         8570.86 
        948.389         6446.36 
        948.546         4306.37 
        948.627         3308.73 
        948.661         2934.97 
        948.702         2531.92 
        948.777         1948.91 
        948.835          1656.9 
        948.893         1519.82 
        948.922         1511.36 
        948.951         1512.07 
        948.966         1512.48 
         948.98         1512.86 
        948.994         1513.23 
        949.009         1513.64 
        949.023         1514.01 
        949.037         1514.39 
        949.052         1514.79 
        949.066         1515.17 
        949.095         1515.95 
        949.153         1526.85 
         949.23         1748.73 
        949.258         1899.71 
        949.269         1965.71 
         949.28         2037.78 
         949.33         2432.54 
         949.36         2712.94 
         949.43         3482.39 
          949.5         4374.64 
         949.64         6347.21 
        949.781         8370.62 
        949.795         8572.68 
        949.879         9780.78 
        949.921         10375.2 
        949.963         10959.3 
        950.131         13204.9 
        950.299         15307.7 
        950.467         17240.5 
        950.635           19035 
        950.719           19885 
        950.804         20701.4 
        950.888         21497.8 
        951.056         23006.8 
        951.224         24444.1 
        951.392         25845.6 
        951.728         28572.5 
        952.065         31307.1 
        952.401         33955.6 
        952.688         36140.3 
        952.737         36540.2 
        952.788         36953.9 
        952.888         37758.8 
        953.089         39338.1 
        953.489         42520.5 
        953.689         44112.7 
        953.889         45690.4 
        954.089         47205.6 
         954.29         48608.6 
         954.49         49983.4 
         954.69         51328.9 
         954.89         52589.6 
         955.09           53709 
         955.29         54803.8 
        955.491         55878.6 
        955.768         57335.3 
        955.891           57953 
        956.014         58559.3 
         956.26         59748.4 
        956.753         62005.9 
        957.245         64115.2 
        957.738           66040 
        958.156         67498.7 
         958.23         67738.1 
        958.439         68386.5 
        958.722           69187 
        959.006           69892 
        959.289         70497.7 
        959.572         71003.4 
        959.855         71404.3 
        960.139         71703.7 
         960.38         71871.5 
        960.414         71888.8 
        960.422         71892.8 
         960.43         71896.6 
         960.48         71918.6 
         960.58         71952.8 
         960.78         71984.6 
         961.18         71891.3 
        961.581           71606 
        961.981         71139.5 
        962.381         70496.1 
        962.782           69700 
        962.934         69349.1 
        963.182         68741.2 
        963.582         67665.5 
        964.231         65675.6 
        964.879         63399.2 
        965.528         60889.4 
        966.177         58110.7 
        966.501         56636.3 
        966.825         55082.5 
        966.915         54631.7 
        967.149         53439.7 
        967.194           53206 
        967.474         51717.5 
        967.753         50150.8 
        968.032           48498 
        968.311         46736.5 
         968.59         44849.7 
         968.87         42824.9 
        969.001         41828.1 
        969.149         40646.6 
        969.297         39410.7 
        969.445         38103.1 
        969.556         37070.8 
        969.593         36721.1 
        969.741         35271.3 
        969.927           33342 
        970.112         31219.8 
        970.297         28928.6 
        970.482         26363.1 
        970.667         23481.7 
        970.786         21405.8 
         970.83           20596 
        970.852         20182.2 
        970.874         19764.7 
        970.962           18030 
        971.138         14228.5 
        971.216         12423.1 
        971.282           10824 
        971.315         10009.8 
        971.348          9192.8 
        971.375         8521.51 
         971.48         5976.06 
        971.585         3821.02 
        971.653         2844.77 
        971.677         2603.48 
         971.69         2497.61 
        971.703         2413.38 
        971.732         2287.38 
        971.744         2262.03 
        971.753         2251.09 
        971.762         2246.04 
        971.778         2243.91 
        971.792          2244.3 
        971.806         2244.83 
        971.821         2245.39 
        971.827         2245.62 
        971.833         2245.85 
        971.836         2245.96 
        971.839         2246.08 
        971.851         2246.53 
        971.866          2247.1 
         971.88         2247.63 
         971.91         2249.78 
        971.969         2388.28 
        972.037         3004.48 
        972.087         3748.39 
        972.137         4687.85 
         972.15         4958.91 
        972.237         6968.68 
        972.324         9137.82 
        972.499         13398.4 
        972.548         14534.6 
        972.673           17246 
        972.798         19730.8 
        972.923         21981.1 
        973.048         24026.2 
        973.173         25894.8 
        973.298           27598 
        973.423         29198.4 
        973.548         30697.6 
        973.601         31298.7 
        973.673         32096.1 
        973.746         32869.9 
         973.89         34380.6 
        974.034         35799.7 
        974.178         37133.6 
        974.466         39707.8 
        974.754         42131.3 
        975.022         44202.5 
        975.043         44364.9 
        975.176           45396 
        975.331         46538.3 
        975.485         47566.9 
         975.64         48588.2 
        975.949           50629 
        976.259         52540.3 
        976.568         54464.2 
        976.877         56476.7 
        977.186         58612.7 
        977.541         60938.1 
        977.805         62663.1 
        977.983         63869.8 
        978.423         66669.3 
        978.643         68172.6 
        978.865         69801.2 
        979.085         71555.4 
        979.305         73461.4 
        979.745         77115.7 
        980.187         80811.2 
        980.407         82467.7 
        980.627         84211.3 
        980.848         85645.8 
        981.068         87057.6 
        981.288         88504.9 
        981.509         89892.3 
         981.95           92704 
        982.831         98015.5 
        983.503          102195 
        983.713          103586 
         983.75          103834 
        983.923          105010 
        984.344          107730 
        985.184          112960 
        985.271          113488 
        985.945          117710 
        986.281          119809 
        986.618          121889 
        986.955          123532 
        987.292          124798 
        987.628          125994 
        987.965          127102 
        988.302          128532 
        988.639          130294 
        988.975          131808 
        989.312          133030 
        989.649          133818 
        989.986          134043 
        990.323          134382 
        990.659          134979 
        990.996          135863 
        991.333          137388 
         991.67          139143 
        992.006          141445 
        992.343          144002 
         992.68          147238 
        992.827          148725 
