# Koester WD models
# teff = 10000 K (value for the effective temperature for the model. Temperatures are given in K)
# logg = 9.5 log(cm/s2) (value for Log(G) for the model.)
#
# column 1: WAVELENGTH (ANGSTROM), Wavelength in Angstrom
# column 2: FLUX (ERG/CM2/S/A), Flux in erg/cm2/s/A
         899.23         531.218 
        901.081         551.403 
        902.658         569.121 
        904.235          587.34 
        905.539         602.774 
         907.39         625.309 
         908.45         638.544 
        909.241         648.576 
        910.032         658.742 
        911.193         673.925 
        911.613         679.498 
        912.034         685.109 
        912.454         692.102 
        912.465         692.322 
        912.875         700.877 
        913.037         704.508 
        913.241         705.969 
        913.284         706.422 
        913.478         707.688 
        913.531         708.285 
        913.755         709.909 
        913.822         710.355 
         914.08         713.569 
        914.165         713.955 
        914.499         718.536 
        914.575          719.28 
        915.071          726.17 
         915.54         734.749 
        915.609         733.804 
        915.643         734.262 
        915.677         734.746 
        915.813         738.818 
        915.949          801.15 
        916.085         834.093 
        916.221         766.272 
        916.285         746.204 
        916.357         744.504 
        916.429         745.538 
        916.574         750.548 
        916.718         844.561 
        916.862         950.728 
        917.006         926.198 
         917.15         798.794 
         917.21         764.862 
        917.294         758.113 
        917.378         759.342 
        917.547         770.127 
        917.715         942.701 
        917.883         1142.11 
        918.051         1173.18 
        918.219         1019.17 
        918.387         810.471 
        918.417         790.378 
         918.51          776.09 
        918.556         776.771 
        918.602         777.462 
        918.786         796.277 
         918.97         1045.61 
        919.057         1211.08 
        919.154          1387.6 
        919.251         1519.68 
        919.446         1605.39 
         919.64         1447.71 
        919.834         1095.76 
        919.841         1082.95 
        920.028         818.247 
        920.215         801.939 
        920.403         824.272 
         920.59         1113.36 
        920.777         1570.76 
        920.964         1982.79 
        921.151         2231.72 
        921.339         2318.91 
        921.526         2201.83 
        921.713         1870.23 
          921.9         1439.43 
        922.087         1024.31 
        922.144         931.272 
        922.274         835.092 
        922.405         836.223 
        922.535         839.242 
        922.665         940.709 
         922.76         1116.31 
         922.78         1160.25 
        922.795          1194.1 
         922.81         1229.98 
         922.86         1355.66 
         922.96         1634.01 
         923.06         1922.76 
         923.16         2237.73 
         923.26            2546 
        923.361         2812.37 
        923.461         3035.22 
        923.561         3192.08 
        923.661         3313.75 
        923.761         3403.82 
        923.861         3460.75 
        923.961         3481.61 
        924.061         3466.53 
        924.161         3406.33 
        924.261         3298.14 
        924.362         3139.15 
        924.462         2937.29 
        924.562         2704.73 
        924.662         2442.19 
        924.762         2154.78 
        924.862         1864.56 
        925.062         1320.22 
        925.262         936.911 
          925.4         885.185 
        925.442         885.888 
        925.463          886.24 
        925.484         886.595 
        925.568         888.006 
        925.736         985.009 
        925.904         1339.26 
        926.072         1818.81 
        926.112         1941.94 
         926.24          2360.9 
        926.369          2794.2 
        926.497         3220.92 
        926.625         3641.77 
        926.753         4032.17 
        926.881         4363.92 
        927.009         4623.54 
        927.137         4827.59 
        927.265         4980.24 
        927.394         5095.91 
        927.522         5183.19 
         927.65         5243.29 
        927.778         5268.51 
        927.906         5254.97 
        928.034         5201.38 
        928.102         5152.71 
        928.142         5117.34 
        928.162         5097.74 
        928.182         5076.85 
        928.262          4994.1 
        928.423         4751.25 
        928.583          4423.3 
        928.743          4040.4 
        928.903         3584.46 
        928.985         3330.94 
        929.037         3164.84 
        929.063         3080.41 
        929.089         2995.27 
        929.125         2874.46 
        929.193         2642.15 
        929.261         2413.16 
        929.398         1973.11 
        929.493         1687.09 
        929.525          1594.8 
        929.534         1569.98 
        929.543          1545.4 
        929.593         1412.39 
        929.617         1351.46 
        929.655         1262.31 
        929.693         1179.99 
        929.769         1045.91 
        929.827         983.523 
        929.883         964.029 
         929.91          963.63 
        929.939         964.149 
        929.954         964.422 
        929.968         964.673 
        929.982         964.928 
        929.996         965.179 
         930.01         965.433 
        930.024         965.685 
        930.038         965.939 
        930.052         966.194 
        930.081         966.718 
        930.137         968.625 
        930.201         996.931 
        930.247         1049.51 
        930.249         1052.38 
        930.251         1055.28 
        930.301          1140.4 
        930.326          1189.7 
        930.402         1366.03 
        930.478         1571.97 
         930.63         2040.81 
        930.633         2050.58 
        930.782         2565.06 
        930.931         3114.63 
         931.08         3653.17 
        931.229         4187.99 
        931.379         4693.95 
        931.528         5183.57 
        931.677         5669.79 
        931.788         6007.64 
        931.814         6083.54 
        931.826         6118.03 
        931.838         6152.24 
        931.888          6290.6 
        931.988         6548.87 
        932.088         6775.91 
        932.188         6980.43 
        932.288         7165.88 
        932.389          7317.3 
        932.489         7446.33 
        932.589         7562.76 
        932.789         7759.36 
        932.989          7911.5 
        933.189         8030.38 
        933.347         8101.04 
        933.375         8111.34 
        933.377         8112.06 
        933.389         8116.24 
        933.403         8120.99 
        933.432         8130.72 
         933.46         8139.33 
        933.542         8159.56 
        933.652          8179.2 
        933.762         8196.01 
        933.872         8192.05 
        933.982         8164.28 
        934.092         8110.81 
        934.202         8033.18 
        934.312         7931.23 
        934.413         7816.72 
        934.422         7805.73 
        934.533         7657.79 
        934.652         7469.11 
        934.771         7249.29 
         934.89         7017.85 
        935.009         6758.01 
        935.026          6718.7 
        935.128          6475.8 
         935.23         6220.42 
        935.332         5943.55 
        935.434         5650.15 
        935.537         5339.45 
        935.639            5017 
        935.741         4688.54 
        935.746         4672.08 
        935.843         4344.23 
        935.945         3986.21 
        936.144          3285.1 
        936.343         2589.91 
        936.484         2110.53 
        936.542         1921.31 
        936.601         1741.73 
        936.605         1729.87 
        936.717         1422.93 
        936.829          1192.1 
        936.894         1117.48 
        936.938         1099.71 
        936.941         1099.31 
        936.944         1099.11 
        936.973          1098.6 
        936.987         1098.88 
        936.994         1099.02 
        937.001         1099.16 
        937.015         1099.44 
        937.029         1099.73 
        937.043         1100.01 
        937.058         1100.31 
        937.072          1100.6 
        937.086         1100.88 
        937.101         1101.19 
        937.115         1101.47 
        937.143         1102.04 
          937.2          1104.3 
        937.314         1201.09 
        937.428         1443.79 
        937.493         1620.67 
        937.542         1768.11 
        937.593         1930.92 
        937.694         2272.95 
        937.794         2631.24 
        937.894         2996.93 
         937.95            3206 
        937.988         3347.78 
        937.994         3370.21 
            938         3392.92 
         938.05         3580.41 
         938.15         3955.55 
         938.35         4719.43 
         938.55         5440.64 
        938.587         5573.97 
        938.751         6142.32 
        938.914         6682.01 
        939.077         7187.24 
        939.147         7402.82 
        939.209         7589.33 
         939.24         7681.01 
        939.271         7771.17 
        939.395         8121.49 
        939.519         8477.46 
        939.643         8815.72 
        939.768         9133.46 
        939.892         9441.05 
        940.016         9729.07 
         940.14         9998.97 
        940.264         10242.8 
        940.388         10457.9 
        940.512         10657.9 
        940.532         10688.7 
        940.636         10843.7 
         940.74         10988.9 
        940.949         11257.2 
        941.157         11501.2 
        941.365         11721.2 
        941.573         11915.9 
        941.781         12090.6 
         941.99         12246.8 
        942.198         12385.4 
        942.406         12504.3 
        942.614         12603.9 
        942.822         12684.9 
        942.979         12733.7 
        943.014         12742.7 
        943.031         12747.1 
        943.048         12751.3 
        943.116         12764.5 
        943.252           12783 
        943.524         12780.7 
        943.796         12737.1 
        943.932         12698.4 
        944.068         12643.8 
        944.205         12559.2 
        944.341         12457.6 
        944.477         12339.5 
        944.613         12204.3 
        944.749         12051.4 
        944.885         11884.2 
        945.007         11719.8 
        945.021         11700.1 
        945.157           11499 
        945.308         11256.5 
        945.458         11010.6 
        945.608         10751.9 
        945.758           10476 
        945.908         10188.8 
        946.058         9909.62 
        946.208         9606.64 
        946.359         9281.71 
        946.509         8943.14 
        946.659         8579.78 
        946.809         8208.79 
        946.959         7823.29 
        946.962         7815.31 
         947.06         7548.68 
        947.109         7410.36 
        947.158         7268.61 
        947.354         6666.84 
        947.551         6004.84 
        947.747         5280.55 
        947.803         5064.28 
        947.943         4503.54 
        948.083         3936.98 
        948.223            3367 
        948.363         2805.32 
        948.461         2426.67 
        948.482         2347.18 
        948.503         2269.45 
        948.546         2121.12 
         948.63         1845.27 
        948.661         1753.36 
        948.777         1474.81 
        948.835         1393.51 
        948.893          1365.1 
        948.922         1364.44 
        948.951         1365.14 
        948.966         1365.51 
         948.98         1365.85 
        948.994         1366.19 
        949.009         1366.56 
        949.023          1366.9 
        949.037         1367.25 
        949.052         1367.61 
        949.066         1367.95 
        949.095         1368.66 
        949.153         1371.46 
         949.23         1425.51 
        949.258         1467.51 
        949.269         1487.72 
         949.28         1508.73 
         949.33         1623.08 
         949.36         1702.99 
         949.43         1915.13 
          949.5          2156.4 
         949.64         2697.48 
        949.781         3280.33 
        949.795          3339.8 
        949.879         3698.38 
        949.921          3879.9 
        949.963         4062.11 
        950.131         4789.92 
        950.299         5506.46 
        950.467         6190.23 
        950.635         6833.34 
        950.719         7140.62 
        950.804         7436.34 
        950.888         7722.95 
        951.056         8268.95 
        951.224         8783.14 
        951.392         9281.77 
         951.56         9773.46 
        951.728         10239.9 
        951.896         10694.1 
        952.065         11120.8 
        952.401           11979 
        952.738         12827.9 
        953.075         13676.4 
        953.413         14481.9 
         953.75         15247.2 
        953.918         15612.4 
        954.087         15939.7 
        954.256         16229.6 
        954.425         16508.9 
        954.593         16778.7 
        954.762         17041.1 
        954.859         17186.2 
        955.099           17520 
        955.437         17970.2 
        956.014         18683.5 
        956.592         19382.9 
        957.169         20019.4 
        957.747         20590.1 
        958.324         21094.3 
        958.514         21245.9 
        958.901         21532.2 
        959.289         21787.7 
        959.676         22002.8 
        959.697         22013.6 
        960.063         22188.2 
         960.43           22334 
        960.796         22455.6 
        961.162         22545.9 
        961.529         22604.5 
        961.895         22628.5 
        962.261         22617.6 
        962.628         22569.9 
        962.994         22482.4 
         963.36         22357.3 
        963.727         22193.2 
        963.955         22071.5 
        964.093         21990.5 
        964.231         21901.6 
        964.507         21725.1 
         965.06         21282.2 
        965.612         20742.3 
        966.165         20122.3 
        966.717         19426.7 
        966.993         19039.5 
        967.269         18635.1 
        967.546           18200 
        967.612         18092.1 
        967.822         17735.3 
        968.032         17357.2 
        968.242         16950.1 
        968.452         16520.4 
        968.663         16062.4 
        968.873         15568.7 
        969.083         15037.6 
        969.247         14592.4 
        969.289         14473.1 
        969.293         14461.7 
        969.297         14450.3 
        969.347         14304.8 
        969.447         14003.1 
        969.647         13352.2 
        969.768         12929.2 
        969.847         12639.5 
        969.927         12335.7 
        970.085           11684 
        970.243         10974.7 
        970.401         10195.6 
        970.559         9340.96 
        970.717         8396.44 
        970.874         7376.11 
        971.031         6285.64 
        971.189         5143.04 
        971.298         4344.19 
        971.344         4008.95 
        971.346          3994.6 
        971.348         3980.27 
        971.398         3624.64 
        971.411          3534.1 
        971.467          3157.3 
        971.498         2960.57 
        971.585          2471.5 
        971.644         2216.85 
        971.703          2064.3 
        971.732         2035.69 
        971.762          2030.2 
        971.778          2030.6 
        971.792         2031.08 
        971.806         2031.56 
        971.821         2032.08 
        971.827         2032.29 
        971.833         2032.49 
        971.836          2032.6 
        971.839          2032.7 
        971.851         2033.11 
        971.866         2033.63 
         971.88         2034.11 
         971.91         2035.19 
        971.969         2064.87 
        972.037         2242.28 
        972.087         2462.21 
        972.137         2732.17 
         972.15         2807.46 
        972.237         3366.15 
        972.324         3988.03 
        972.499         5276.15 
        972.548         5637.21 
        972.673         6536.05 
        972.798         7392.64 
        972.923         8190.76 
        973.048         8932.84 
        973.173         9618.68 
        973.298         10253.6 
        973.423         10849.3 
        973.548         11407.1 
        973.601         11632.1 
        973.673         11929.1 
        973.746         12217.5 
         973.89         12771.2 
        974.034         13289.8 
        974.178         13772.4 
        974.322           14237 
        974.466         14689.7 
         974.61         15134.2 
        974.754         15532.7 
        975.043         16299.7 
        975.187         16676.9 
        975.331         17037.5 
        975.475         17361.2 
        975.556         17540.4 
        975.598           17633 
        975.619         17679.3 
         975.64         17725.4 
        975.724         17909.3 
        975.892           18276 
        976.228         18968.9 
        976.565         19656.3 
        977.237         21111.7 
         977.86         22388.9 
         977.91         22496.3 
        978.221           23114 
        978.582         23853.8 
        978.944         24668.3 
        979.305         25587.3 
        979.666         26476.2 
        979.846         26965.4 
        980.027         27445.1 
        980.208         27834.5 
        980.389         28238.1 
        980.569         28657.9 
         980.75         29041.9 
         980.93         29384.1 
        981.111         29731.5 
        981.291         30085.5 
        981.472         30424.3 
        981.653         30762.4 
        982.014         31450.8 
        982.736         32738.9 
        982.996         33204.1 
        983.084           33364 
        983.459         34058.6 
        983.923         34963.4 
        983.967         35051.4 
        984.851         36694.4 
        985.735           38263 
        986.177         39059.7 
        986.618         39835.4 
         987.06         40435.8 
        987.502         40932.1 
        987.943         41389.9 
        988.386         41964.1 
         989.14         42975.1 
        989.226         43070.3 
        989.269         43117.4 
        989.312         43164.9 
        989.484         43358.7 
        989.656         43448.9 
        989.829         43522.7 
        990.173         43657.1 
        990.517         43885.9 
        990.689         44000.5 
        990.861           44112 
        991.033         44331.3 
        991.206         44566.6 
        991.378           44801 
         991.55         45034.1 
        991.894         45693.2 
        992.238         46363.3 
        992.583         47236.4 
        992.927         48172.2 
        993.351         49390.2 
        993.615         50197.6 
         993.88         50757.5 
        994.144         51274.6 
        994.408         51711.9 
