# Koester WD models
# teff = 10250 K (value for the effective temperature for the model. Temperatures are given in K)
# logg = 8.75 log(cm/s2) (value for Log(G) for the model.)
#
# column 1: WAVELENGTH (ANGSTROM), Wavelength in Angstrom
# column 2: FLUX (ERG/CM2/S/A), Flux in erg/cm2/s/A
         899.23         542.135 
        899.723         547.564 
         901.98         572.957 
        904.235         599.375 
        906.491         626.851 
        908.253         649.072 
         908.45         651.595 
        908.747         655.421 
        909.241         661.827 
        910.032         672.194 
        911.193         687.679 
        911.613         693.362 
        912.034         699.086 
        912.465          705.63 
         912.67         709.208 
        912.875         713.434 
        912.977         715.802 
         913.08         717.493 
        913.182         716.575 
        913.284         716.786 
        913.361          718.25 
        913.446          719.07 
        913.488         719.324 
        913.531         719.827 
        913.581         720.691 
        913.702         723.119 
        913.822         723.829 
        913.942         727.159 
        913.959         728.312 
        914.062         727.725 
        914.165         728.652 
        914.167          728.68 
        914.268         730.844 
        914.371         742.544 
        914.473          733.37 
        914.575         734.486 
        914.678         736.364 
         914.78         762.446 
        914.882         756.885 
        914.897         751.931 
        914.984         740.389 
        915.071         741.582 
        915.245         761.299 
        915.419         821.168 
         915.54         751.227 
        915.544         750.574 
        915.594         749.141 
        915.609         749.352 
        915.643         749.845 
        915.677         750.338 
        915.813         755.515 
        915.949          887.44 
        916.085         954.548 
        916.221         808.621 
        916.285          764.34 
        916.357         760.287 
        916.429         761.346 
        916.574         768.833 
        916.718         967.507 
        916.862         1189.98 
        917.006         1130.53 
         917.15         861.412 
         917.21         790.893 
        917.294          774.17 
        917.378         775.424 
        917.547         796.551 
        917.715         1145.94 
        917.883         1578.95 
        918.051         1632.25 
        918.219         1286.61 
        918.387         864.218 
        918.417         824.715 
         918.51         792.508 
        918.556         793.205 
        918.602         793.906 
        918.786         831.002 
         918.97         1315.75 
        919.057         1668.36 
        919.154         2044.72 
        919.251         2329.96 
        919.446         2591.59 
         919.64            2210 
        919.834         1406.22 
        919.841         1378.33 
        920.028         856.687 
        920.215         818.872 
        920.403         862.933 
         920.59         1416.92 
        920.777         2421.49 
        920.964         3435.08 
        921.151         4017.75 
        921.339         4182.97 
        921.526         3833.65 
        921.713         3007.39 
          921.9         2031.53 
        922.087         1204.17 
        922.144         1034.05 
        922.274         854.196 
        922.405         853.835 
        922.535         858.437 
        922.665         1044.42 
         922.76          1362.5 
         922.78         1446.27 
        922.795         1512.36 
         922.81         1580.75 
         922.86          1825.7 
         922.96         2392.46 
         923.06         3009.55 
         923.16         3693.88 
         923.26         4397.29 
        923.361         5039.15 
        923.461         5586.35 
        923.561         5977.41 
        923.661         6274.11 
        923.761         6477.96 
        923.861         6595.15 
        923.961         6616.73 
        924.061         6541.11 
        924.161         6352.46 
        924.261         6048.67 
        924.362         5636.74 
        924.462         5151.02 
        924.562         4611.01 
        924.662         4018.63 
        924.762         3395.24 
        924.862         2789.89 
        924.962         2213.39 
        925.062         1700.13 
        925.162         1283.52 
        925.262         1003.86 
        925.363         904.276 
          925.4          903.77 
        925.442         904.487 
        925.463         904.848 
        925.484         905.206 
        925.568         906.648 
        925.736         1083.58 
        925.904         1722.78 
        926.072         2659.46 
        926.112         2907.84 
         926.24         3749.96 
        926.369         4632.34 
        926.497         5494.77 
        926.625         6356.32 
        926.753         7179.58 
        926.881         7908.55 
        927.009         8498.01 
        927.137         8963.72 
        927.265         9301.91 
        927.394         9545.23 
        927.522         9713.18 
         927.65         9809.72 
        927.778         9822.41 
        927.906         9743.34 
        928.034         9571.65 
        928.102         9433.35 
        928.142         9338.42 
        928.162         9287.08 
        928.182         9232.98 
        928.262         9009.08 
        928.423         8440.05 
        928.583         7722.16 
        928.743         6900.19 
        928.903         5985.58 
        928.985         5491.72 
        929.037         5170.62 
        929.063          5007.1 
        929.089         4840.72 
        929.125         4606.67 
        929.193         4157.24 
        929.261         3713.46 
        929.398         2870.91 
        929.493         2320.07 
        929.525         2145.14 
        929.534         2096.72 
        929.543         2048.96 
        929.593          1798.8 
        929.617         1686.43 
        929.655         1521.27 
        929.693         1373.77 
        929.769         1136.52 
        929.827         1025.44 
        929.883          985.54 
         929.91         983.796 
        929.939         984.292 
        929.954         984.569 
        929.968         984.826 
        929.982         985.084 
        929.996         985.342 
         930.01         985.602 
        930.024          985.86 
        930.038         986.118 
        930.052         986.375 
        930.081         986.912 
        930.137          990.23 
        930.201         1044.53 
        930.247         1136.52 
        930.249         1141.58 
        930.251         1146.69 
        930.301         1295.56 
        930.326         1382.28 
        930.402         1701.33 
        930.478         2083.86 
         930.63         2978.91 
        930.633          2997.7 
        930.782          3972.1 
        930.931         5013.35 
         931.08         6010.62 
        931.229         6991.49 
        931.379         7935.44 
        931.516          8763.1 
        931.528         8837.14 
        931.677          9734.1 
        931.838         10679.7 
        931.999         11549.8 
         932.16         12311.1 
        932.321         12980.9 
        932.483         13472.2 
        932.644         13891.4 
        932.805         14231.3 
        932.966         14495.3 
        933.127         14702.2 
        933.173         14750.8 
        933.288         14851.8 
        933.403           14923 
         933.45         14938.1 
        933.496         14946.6 
        933.519         14948.6 
        933.542         14949.1 
         933.58         14947.5 
        933.616           14942 
        933.634         14937.9 
        933.652         14932.7 
        933.724           14907 
        933.868         14803.7 
        934.012         14618.2 
        934.156         14350.5 
          934.3         14006.9 
        934.444         13597.2 
        934.526         13342.3 
        934.589         13129.3 
        934.652         12901.9 
        934.778         12415.3 
        934.904         11921.1 
         935.03         11379.4 
        935.082         11141.4 
        935.156         10807.4 
         935.23         10462.4 
        935.378         9729.29 
        935.527         8961.39 
        935.675         8150.39 
        935.823         7293.21 
        935.971         6365.12 
        936.044         5899.94 
        936.094         5579.19 
        936.119         5415.63 
        936.144         5250.64 
        936.244         4582.11 
        936.288         4282.46 
        936.444         3252.87 
        936.601         2290.27 
        936.685         1847.37 
        936.714         1712.56 
        936.757         1531.92 
        936.829         1292.38 
        936.887         1169.99 
        936.944         1123.46 
        936.973         1121.38 
        937.001         1121.95 
        937.015         1122.24 
        937.029         1122.53 
        937.043         1122.82 
        937.058         1123.13 
        937.072         1123.42 
        937.086         1123.71 
        937.101         1124.01 
        937.115          1124.3 
        937.143         1124.88 
          937.2         1128.76 
        937.314         1301.05 
        937.428         1725.53 
        937.493         2049.08 
        937.542         2322.51 
        937.593         2632.11 
        937.694         3283.28 
        937.794         3967.67 
        937.894         4669.82 
         937.95         5067.99 
        937.988         5334.42 
        937.994         5376.27 
            938         5418.34 
         938.05         5767.08 
         938.15         6447.05 
         938.25         7137.04 
         938.45         8432.95 
         938.65         9654.43 
        938.788         10458.9 
        938.809           10582 
        938.851         10825.6 
        938.914         11183.8 
         939.04         11879.5 
        939.271         13137.3 
        939.502         14363.7 
        939.733         15554.6 
        939.965         16719.3 
        940.081         17272.1 
        940.196         17807.2 
        940.312         18294.7 
        940.427         18752.4 
        940.543         19185.8 
        940.576         19307.3 
        940.658         19597.7 
         940.74         19877.1 
        940.905         20355.6 
        941.069         20801.7 
        941.233         21216.1 
        941.397           21595 
        941.561         21934.8 
        941.725         22246.4 
        941.889           22530 
        942.054         22783.2 
        942.218         23006.1 
        942.382         23195.4 
        942.546         23351.9 
         942.71         23476.1 
        942.874           23567 
        942.998         23614.4 
         943.03         23623.6 
        943.039         23625.9 
        943.048         23628.1 
        943.098         23638.2 
        943.198         23648.8 
        943.398         23595.6 
        943.598         23477.3 
        943.798         23295.9 
        943.998         23053.7 
        944.199         22697.6 
        944.399         22259.8 
        944.599         21757.3 
        944.691         21504.5 
        944.799         21194.7 
        944.845           21061 
        944.999         20594.2 
        945.153         20098.4 
        945.308         19571.2 
        945.616         18521.9 
        945.924           17397 
        946.078         16827.1 
        946.232         16220.7 
        946.387         15586.2 
        946.541         14932.2 
        946.695         14251.2 
        946.849         13574.1 
        947.003         12857.5 
        947.108         12346.3 
        947.157           12099 
        947.208         11835.9 
        947.308         11305.9 
        947.509           10164 
        947.709         8907.04 
        947.735         8734.73 
        947.909         7519.12 
        948.083         6225.95 
        948.257          4876.1 
        948.317         4415.73 
        948.431         3556.28 
        948.546         2757.79 
         948.66         2086.22 
        948.727         1772.92 
        948.761          1644.9 
        948.771         1611.49 
        948.774         1601.76 
        948.777         1592.17 
        948.827         1466.36 
        948.835         1450.78 
        948.893          1394.8 
        948.922         1392.37 
        948.951         1393.09 
        948.966         1393.46 
         948.98         1393.81 
        948.994         1394.16 
        949.009         1394.53 
        949.023         1394.88 
        949.037         1395.23 
        949.052         1395.61 
        949.066         1395.95 
        949.095         1396.68 
        949.153         1401.29 
         949.23         1500.05 
        949.258         1572.18 
        949.269         1606.05 
         949.28         1642.82 
         949.33         1838.88 
         949.36          1979.7 
         949.43         2359.83 
          949.5         2802.91 
         949.64         3826.37 
        949.781         4935.69 
        949.795         5048.23 
        949.879          5735.7 
        949.921         6078.51 
        949.963         6417.77 
        950.131         7745.35 
        950.299          9012.7 
        950.467         10191.5 
        950.635           11296 
        950.719         11823.1 
        950.804         12329.4 
        950.888         12823.9 
        951.056         13771.7 
        951.224         14676.3 
        951.392         15553.3 
        951.728         17289.4 
        952.065           18946 
        952.401         20556.7 
        952.738         22146.4 
        953.075         23779.4 
        953.413         25372.2 
         953.75         26922.5 
        953.918           27681 
        954.087         28374.8 
        954.256         28998.8 
        954.425         29605.3 
        954.593         30194.2 
        954.762         30767.2 
        954.859         31081.5 
        955.099         31792.9 
        955.437         32759.9 
        956.014         34320.6 
        956.592         35747.6 
        957.169         37067.3 
        957.747         38266.5 
        958.324         39318.6 
        958.514         39629.3 
        958.901         40201.7 
        959.289         40687.7 
        959.676         41081.7 
        959.697         41100.5 
        960.063         41384.5 
         960.43         41581.2 
        960.796         41692.7 
        961.162         41717.2 
        961.529         41660.7 
        961.895         41523.4 
        962.261         41308.8 
        962.628           41021 
        962.994           40661 
        963.222           40405 
         963.36         40239.4 
        963.727         39757.5 
        964.231         39004.4 
        964.735         38145.8 
         965.24         37188.6 
        965.744         36122.3 
        966.249         34950.2 
        966.753         33662.8 
        967.005         32957.5 
        967.257         32218.9 
        967.492           31496 
         967.51         31438.5 
        967.762         30612.2 
        968.032         29667.5 
        968.302         28646.2 
        968.572         27552.9 
        968.843         26363.9 
        968.929         25966.1 
        969.113         25076.3 
        969.297         24127.5 
        969.481         23109.7 
        969.665           22015 
        969.772         21334.3 
        969.849         20828.8 
        969.927         20308.8 
        970.081         19202.8 
        970.235         18010.4 
        970.389           16721 
        970.543         15323.1 
        970.697         13780.3 
        970.782         12858.9 
        970.828         12343.3 
        970.851         12081.7 
        970.874         11815.4 
        970.966         10712.5 
         971.15         8329.93 
         971.29         6415.73 
        971.319         6013.92 
        971.333          5814.3 
        971.348         5615.13 
        971.406          4837.8 
        971.462         4138.26 
        971.467         4075.68 
        971.523         3436.84 
        971.585         2840.52 
        971.644         2402.91 
        971.703         2138.71 
        971.732          2084.6 
        971.762         2071.16 
        971.778         2071.19 
        971.792         2071.67 
        971.806         2072.16 
        971.821         2072.69 
        971.827          2072.9 
        971.833         2073.11 
        971.836         2073.22 
        971.839         2073.32 
        971.851         2073.74 
        971.866         2074.27 
         971.88         2074.76 
         971.91         2075.99 
        971.969          2132.5 
        972.037          2437.3 
        972.087         2810.89 
        972.137         3282.65 
         972.15         3420.25 
        972.237         4444.98 
        972.324         5597.12 
        972.499         8002.86 
        972.548          8668.5 
        972.673           10292 
        972.798         11796.6 
        972.923         13175.2 
        973.048         14434.7 
        973.173         15594.1 
        973.298           16661 
        973.423         17665.3 
        973.548         18611.8 
        973.601         18995.5 
        973.673         19504.2 
        973.746           20000 
         973.89           20957 
        974.034         21852.6 
        974.178         22701.3 
        974.466         24335.8 
        974.754         25849.8 
        975.022           27145 
        975.043         27246.8 
        975.176         27890.7 
        975.331         28601.6 
        975.485         29239.7 
         975.64           29872 
        975.949         31125.2 
        976.259           32294 
        976.568         33471.2 
        977.186         35966.8 
        977.541         37346.9 
        977.805         38363.6 
        977.983         39067.6 
        978.423         40689.3 
        978.643         41552.9 
        978.865         42475.9 
        979.085         43461.4 
        979.305         44524.5 
        979.745         46544.6 
        980.187         48557.7 
        980.407         49454.6 
        980.627         50396.2 
        980.848         51176.9 
        981.068         51941.8 
        981.288         52723.5 
        981.509         53474.6 
         981.95         54992.3 
        982.831         57860.6 
        983.503         60100.6 
        983.713         60841.3 
         983.75         60973.3 
        983.923         61596.9 
        984.344         63043.9 
        985.184         65827.4 
        985.271         66107.9 
        985.945         68342.5 
        986.281         69449.6 
        986.618         70544.1 
        986.955         71421.3 
        987.292         72111.8 
        987.628         72767.8 
        987.965         73381.6 
        988.302         74155.7 
        988.639         75094.1 
        988.975         75911.6 
        989.312         76586.4 
        989.649         77043.5 
        989.986         77219.4 
        990.323         77451.9 
        990.659         77814.1 
        990.996         78319.6 
        991.333         79146.8 
         991.67         80089.6 
        992.006         81303.8 
        992.343         82634.3 
         992.68         84303.7 
        992.827         85066.2 
        993.017         86086.6 
        993.353         87963.7 
        993.616         89535.7 
         993.88         90600.4 
        994.143         91595.6 
        994.274         92099.9 
