# Koester WD models
# teff = 10750 K (value for the effective temperature for the model. Temperatures are given in K)
# logg = 8.25 log(cm/s2) (value for Log(G) for the model.)
#
# column 1: WAVELENGTH (ANGSTROM), Wavelength in Angstrom
# column 2: FLUX (ERG/CM2/S/A), Flux in erg/cm2/s/A
         899.23         993.802 
         899.49         998.854 
        901.863         1045.99 
        904.235         1095.05 
        906.608          1146.1 
         908.72         1193.28 
         908.98          1199.2 
        909.241         1205.15 
         909.49         1210.88 
        909.761         1217.12 
        910.032          1223.4 
        910.573         1236.03 
        911.278         1252.65 
        911.656         1261.63 
        912.034         1270.66 
        912.294         1277.51 
        912.411         1281.08 
        912.541         1285.23 
         912.79         1295.29 
        912.913          1301.7 
        913.037         1307.47 
         913.16         1304.16 
        913.284         1301.31 
        913.407         1306.32 
        913.481         1305.87 
        913.531         1306.98 
        913.581         1308.41 
        913.661         1315.15 
        913.682         1315.62 
        913.742          1312.6 
        913.782         1313.09 
        913.822         1314.03 
        913.982         1332.87 
        914.073         1320.96 
        914.119         1321.39 
        914.142         1321.96 
        914.165         1322.53 
        914.257          1325.7 
        914.307         1343.32 
        914.441          1340.4 
        914.575         1332.76 
         914.71         1349.96 
        914.844         1464.12 
        914.885         1414.17 
        914.978         1343.27 
        915.071         1345.21 
        915.257         1451.21 
        915.443         1584.93 
         915.54         1372.07 
        915.609         1358.83 
        915.617         1359.03 
         915.63         1359.36 
        915.643         1359.69 
        915.677         1360.56 
        915.813         1380.32 
        915.949          1849.1 
        916.085         2075.46 
        916.221          1571.1 
        916.285         1401.78 
        916.357         1377.99 
        916.429         1379.84 
        916.574         1410.51 
        916.718         2095.04 
        916.862         2828.03 
        917.006         2613.01 
         917.15         1726.29 
         917.21         1478.22 
        917.294         1402.31 
        917.378          1404.5 
        917.547          1489.4 
        917.715         2639.08 
        917.883         4054.23 
        918.051         4220.95 
        918.219         3075.37 
        918.387         1703.71 
        918.417         1568.29 
         918.51          1434.5 
        918.556         1435.61 
        918.602         1436.84 
        918.786         1580.63 
         918.97         3139.64 
        919.057         4273.54 
        919.154         5436.27 
        919.251         6281.99 
        919.446         7076.25 
         919.64         5902.99 
        919.834         3394.05 
        919.841         3306.09 
        920.028         1635.39 
        920.215         1480.48 
        920.403         1647.07 
         920.59          3405.8 
        920.777         6468.07 
        920.964         9476.49 
        921.151         11154.7 
        921.339         11582.3 
        921.526         10512.2 
        921.713         8100.41 
          921.9         5247.31 
        922.087         2702.04 
        922.144         2163.23 
        922.274         1552.23 
        922.405         1541.53 
        922.535         1559.68 
        922.665         2184.34 
         922.76         3187.96 
         922.78         3447.84 
        922.795         3650.81 
         922.81         3862.31 
         922.86         4607.81 
         922.96         6247.91 
         923.06          7945.5 
         923.16         9738.65 
         923.26         11507.7 
        923.361         13077.4 
        923.461         14373.4 
        923.561         15276.6 
        923.661         15937.5 
        923.761           16375 
        923.861         16608.3 
        923.961         16621.4 
        924.061         16413.6 
        924.161         15950.6 
        924.261         15227.7 
        924.362         14266.8 
        924.462         13126.4 
        924.562         11842.7 
        924.662         10411.8 
        924.762          8855.9 
        924.862         7262.99 
        924.962         5671.61 
        925.162         2876.38 
        925.241         2133.08 
        925.363         1634.39 
        925.484         1631.07 
        925.605         1641.64 
        925.726         2151.82 
        925.847         3427.48 
        925.968         5189.38 
        926.089         7179.95 
         926.21         9229.56 
         926.22         9400.49 
        926.295         10664.4 
        926.332         11289.6 
        926.369         11900.3 
        926.517         14264.5 
        926.665         16605.9 
        926.813         18756.4 
        926.961         20591.1 
        927.109         21982.5 
        927.257           23010 
        927.406         23716.1 
        927.554         24172.6 
        927.702         24388.4 
         927.85         24283.4 
        927.998         23880.3 
        928.038         23715.1 
         928.11         23341.1 
        928.146         23124.1 
        928.182         22887.7 
        928.327         21760.4 
        928.471         20403.5 
        928.615         18835.1 
        928.759           17064 
        928.903         15142.5 
        929.005         13687.5 
        929.047         13061.9 
        929.085         12481.4 
        929.089         12419.7 
        929.173         11078.7 
        929.261         9633.85 
        929.333          8470.3 
        929.438         6772.52 
        929.543         5108.64 
        929.648         3597.31 
        929.719         2755.99 
        929.737         2573.24 
        929.753         2427.62 
        929.755         2410.19 
        929.769         2293.43 
        929.819         1971.73 
        929.827         1934.09 
        929.883          1779.8 
         929.91         1767.92 
        929.939         1768.59 
        929.954         1769.07 
        929.968         1769.52 
        929.982         1769.97 
        929.996         1770.41 
         930.01         1770.86 
        930.024         1771.31 
        930.038         1771.76 
        930.052         1772.21 
        930.081         1773.14 
        930.137         1787.99 
        930.201         1985.29 
        930.247         2282.73 
        930.249         2297.85 
        930.251         2313.15 
        930.301         2784.32 
        930.326         3053.83 
        930.402         4041.69 
        930.478          5191.1 
         930.63         7694.55 
        930.633         7744.87 
        930.782         10275.9 
        930.931           12836 
         931.08           15212 
        931.229         17503.5 
        931.379           19695 
        931.516         21621.4 
        931.528         21795.4 
        931.677         23886.8 
        931.838         26132.6 
        931.999         28263.3 
         932.16         30165.1 
        932.321         31876.5 
        932.483         33154.2 
        932.644         34257.5 
        932.805         35151.9 
        932.851         35367.4 
        932.966         35852.8 
        932.989         35940.8 
        933.127         36400.4 
        933.265         36744.4 
        933.403         36966.2 
        933.432         36990.4 
        933.542         37014.2 
        933.652         36947.3 
        933.762         36800.9 
        933.872         36530.1 
        933.982         36124.5 
        934.092         35583.6 
        934.202         34927.3 
        934.312         34162.3 
        934.413         33385.7 
        934.422           33315 
        934.533         32410.6 
        934.652         31358.3 
        934.771         30222.9 
         934.89         29087.8 
        935.009         27874.8 
        935.026           27693 
        935.128         26607.5 
         935.23           25509 
        935.332         24347.2 
        935.434         23162.7 
        935.537         21928.4 
        935.639         20652.1 
        935.741         19335.9 
        935.843         17935.7 
        935.945         16452.6 
         935.95         16377.1 
        936.047         14915.2 
        936.144         13410.5 
        936.338         10177.6 
        936.464         7997.99 
        936.532         6812.54 
        936.601         5654.11 
        936.645         4934.91 
        936.714         3906.07 
        936.737          3595.3 
        936.829         2591.52 
        936.887         2197.81 
        936.944         2019.74 
        936.973         2006.25 
        937.001         2007.07 
        937.015         2007.57 
        937.029         2008.07 
        937.043         2008.56 
        937.058          2009.1 
        937.072          2009.6 
        937.086          2010.1 
        937.101         2010.64 
        937.115         2011.14 
        937.143         2012.14 
          937.2         2028.94 
        937.314         2605.27 
        937.428         3925.42 
        937.493         4908.36 
        937.542         5725.87 
        937.593         6613.56 
        937.694         8408.91 
        937.794         10205.8 
         937.95         12961.8 
        937.988         13609.5 
        937.994         13711.3 
            938         13813.1 
         938.05         14644.4 
         938.15         16255.6 
         938.25         17864.7 
         938.45         20857.1 
         938.65         23646.8 
        938.788         25483.1 
        938.851         26322.2 
        938.914         27153.7 
         939.04         28752.2 
        939.061         29019.1 
        939.063         29045.3 
        939.166         30383.5 
        939.271         31701.2 
        939.481         34317.2 
        939.692         36949.2 
        939.902         39532.5 
        940.007         40806.5 
        940.112         42060.3 
        940.216         43269.2 
        940.321         44374.4 
        940.426         45450.4 
        940.531         46489.3 
        940.635         47485.2 
         940.69         47988.5 
         940.74         48429.2 
         940.79         48807.8 
        940.891           49547 
        941.091         50957.9 
        941.291           52251 
        941.491         53401.4 
        941.691         54436.3 
        941.891         55360.5 
        942.092         56166.7 
        942.292         56853.4 
        942.337         56988.2 
        942.492         57399.4 
        942.515         57452.5 
        942.692         57809.7 
         942.87         58055.7 
        942.998         58166.6 
        943.048         58193.9 
        943.098         58212.8 
        943.198         58222.5 
        943.398         58026.8 
        943.598         57650.4 
        943.798         57102.8 
        943.998         56381.8 
        944.199         55358.6 
        944.399         54137.8 
        944.599           52764 
        944.691         52091.7 
        944.799         51284.6 
        944.845         50933.7 
        944.999         49707.5 
        945.153         48413.2 
        945.308         47065.1 
        945.616         44451.7 
        945.924         41691.1 
        946.232         38828.5 
        946.541         35791.9 
        946.694         34195.9 
        946.849         32615.1 
        947.003         30977.4 
        947.158           29230 
        947.313         27390.3 
        947.468         25403.5 
        947.471         25363.4 
        947.623         23271.6 
        947.624           23250 
        947.777         20951.4 
         947.93         18437.2 
        948.083         15741.9 
        948.233         12884.8 
        948.236         12826.9 
        948.314         11294.1 
        948.389         9795.77 
        948.429         8982.88 
        948.546         6702.56 
        948.661         4658.76 
        948.777         3153.59 
        948.835         2700.97 
        948.893         2488.24 
        948.922         2472.85 
        948.951         2473.95 
        948.966         2474.59 
         948.98         2475.19 
        948.994         2475.79 
        949.009         2476.43 
        949.023         2477.03 
        949.037         2477.63 
        949.052         2478.27 
        949.066         2478.87 
        949.095         2480.11 
        949.153         2499.42 
         949.23         2845.26 
        949.258         3077.74 
        949.269         3180.01 
         949.28         3292.58 
         949.33         3902.71 
         949.36         4331.47 
         949.43         5489.37 
          949.5         6805.88 
         949.64         9660.49 
        949.781         12549.3 
        949.795           12836 
        949.879         14542.2 
        949.921         15380.2 
        949.963         16197.6 
        950.131         19325.7 
        950.299         22248.3 
        950.467         24937.4 
        950.635         27432.1 
        950.719         28624.5 
        950.804         29771.2 
        950.888         30885.9 
        951.056         33051.1 
        951.224         35106.4 
        951.392         37136.8 
        951.728         41173.1 
        952.065         45135.3 
        952.401         49020.5 
        952.738         52897.8 
        953.075           57019 
        953.413         61078.5 
         953.75         65166.4 
        953.918         67188.3 
        954.087         69066.3 
        954.256         70789.2 
        954.425         72476.2 
        954.593         74119.6 
        954.762         75725.6 
         954.93         77207.5 
        955.099         78608.9 
        955.267         79988.7 
        955.437         81341.2 
        955.534           82109 
        955.774         83986.1 
        956.014         85770.8 
        956.494         89189.2 
        956.975         92390.5 
        957.455         95366.2 
        957.543         95879.8 
        957.936         98038.1 
         957.98         98266.5 
        958.416          100371 
        958.852          102161 
        959.289          103600 
        959.725          104673 
        959.893          104990 
        960.162          105382 
         960.43          105621 
        960.698          105720 
        960.966          105678 
        961.234          105499 
        961.503          105191 
        962.039          104206 
        962.576          102761 
        963.112          100893 
        963.648         98667.4 
        964.047         96823.6 
        964.139         96367.1 
        964.185         96134.6 
        964.231         95900.9 
        964.415         94950.6 
        964.783         92973.9 
        965.152         90871.8 
         965.52         88632.2 
        965.888         86267.2 
        966.257         83779.4 
        966.625         81179.7 
        966.993         78419.5 
        967.361         75534.3 
        967.428         74994.5 
         967.73         72457.7 
        968.032         69820.6 
        968.334         66944.2 
        968.637         63901.3 
        968.939         60612.3 
        969.185         57740.9 
        969.241         57059.5 
        969.297         56366.5 
        969.409         54937.3 
        969.633         51906.7 
        969.787         49681.8 
        969.857         48630.6 
        969.927         47558.1 
        970.066         45302.4 
        970.205         42934.9 
        970.344         40388.9 
        970.482         37679.9 
        970.621         34745.1 
        970.646         34190.6 
         970.76         31506.4 
        970.874         28614.7 
        970.988         25490.9 
        971.102         22088.2 
        971.217         18392.5 
        971.278         16295.2 
        971.313           15074 
        971.331           14459 
        971.348         13843.5 
        971.418         11366.1 
        971.531         7579.25 
        971.558         6774.62 
        971.575         6298.17 
        971.585         6037.26 
        971.639         4802.43 
        971.644         4706.95 
        971.703         3886.72 
        971.732          3694.8 
        971.762         3632.34 
        971.778         3629.17 
        971.792          3629.8 
        971.806         3630.61 
        971.821         3631.49 
        971.827         3631.87 
        971.833         3632.22 
        971.836          3632.4 
        971.839         3632.56 
        971.851         3633.28 
        971.866         3634.16 
         971.88         3635.01 
         971.91         3638.34 
        971.969          3848.8 
        972.037         4793.98 
        972.087         5928.19 
        972.137         7336.12 
         972.15         7737.21 
        972.237         10666.1 
        972.324         13772.2 
        972.499         19791.6 
        972.548         21384.6 
        972.673         25160.7 
        972.798         28590.2 
        972.923         31681.1 
        973.048         34488.1 
        973.173         37048.8 
        973.298         39413.2 
        973.423           41634 
        973.548         43732.9 
        973.601         44592.4 
        973.673         45725.3 
        973.746           46817 
         973.89         48966.4 
        974.034           50989 
        974.178         52920.4 
        974.466         56611.5 
        974.754         60100.6 
        975.022         63101.1 
        975.043         63335.8 
        975.176         64828.6 
        975.331         66504.7 
        975.485         68017.7 
         975.64           69498 
        975.949         72458.3 
        976.259         75265.6 
        976.568         78107.5 
        976.877         81033.3 
        977.186         84183.1 
        977.541         87616.5 
        977.805           90170 
        977.983           91955 
        978.203         93990.8 
        978.423         96125.8 
        978.643         98377.7 
        978.865          100809 
        979.085          103422 
        979.305          106273 
        979.745          111734 
        980.187          117210 
        980.407          119666 
        980.627          122263 
        980.848          124398 
        981.068          126493 
        981.288          128641 
        981.509          130693 
         981.95          134855 
        982.831          142739 
        983.503          148938 
        983.713          150995 
         983.75          151362 
        983.923          153100 
        984.344          157130 
        985.184          164899 
        985.271          165683 
        985.945          171930 
        986.281          175012 
        986.618          178063 
        986.955          180469 
        987.292          182315 
        987.628          184058 
        987.965          185673 
        988.302          187768 
        988.639          190373 
        988.975          192615 
        989.312          194403 
        989.649          195541 
        989.986          195836 
        990.323          196301 
        990.659          197153 
        990.996          198431 
        991.333          200668 
         991.67          203252 
        992.006          206658 
        992.343          210424 
         992.68          215241 
        992.827          217471 
        993.017          220528 
        993.353          226179 
