# Koester WD models
# teff = 10500 K (value for the effective temperature for the model. Temperatures are given in K)
# logg = 8.25 log(cm/s2) (value for Log(G) for the model.)
#
# column 1: WAVELENGTH (ANGSTROM), Wavelength in Angstrom
# column 2: FLUX (ERG/CM2/S/A), Flux in erg/cm2/s/A
         899.23         663.404 
        899.723          669.97 
         901.98         700.688 
        904.235         732.629 
        906.491         765.832 
        908.253         792.671 
         908.45         795.721 
        908.747          800.34 
        909.241         808.074 
        910.032         820.593 
        911.193         839.283 
        911.613         846.141 
        912.034         853.046 
        912.465         860.642 
         912.67         864.994 
        912.875          870.18 
        912.977         873.174 
         913.08          875.49 
        913.182         873.419 
        913.284         873.906 
        913.361          875.54 
        913.386         876.316 
        913.446         876.806 
        913.488         877.315 
        913.531         878.003 
        913.581         878.908 
        913.702         882.238 
        913.822         882.916 
        913.942         887.465 
        913.959         889.919 
        914.062          887.61 
        914.165         888.766 
        914.167         888.801 
        914.268         891.402 
        914.371         918.485 
        914.473         894.537 
        914.575         895.803 
        914.678         898.147 
         914.78         957.366 
        914.882         944.247 
        914.897         932.126 
        914.984         902.922 
        915.071         904.361 
        915.245         948.384 
        915.419         1074.97 
         915.54         920.298 
        915.544         918.699 
        915.594         913.475 
        915.609         913.726 
        915.643         914.323 
        915.677          914.92 
        915.813         925.717 
        915.949         1209.81 
        916.085         1355.09 
        916.221         1041.44 
        916.285         939.644 
        916.357         926.914 
        916.429          928.19 
        916.574         945.406 
        916.718         1374.19 
        916.862         1840.36 
        917.006         1699.29 
         917.15         1138.55 
         917.21         986.847 
        917.294          943.65 
        917.378         945.161 
        917.547          994.16 
        917.715         1709.42 
        917.883          2618.3 
        918.051         2723.77 
        918.219         1975.48 
        918.387         1121.71 
        918.417         1041.87 
         918.51         965.788 
        918.556         966.586 
        918.602         967.435 
        918.786         1049.83 
         918.97         2003.99 
        919.057         2733.73 
        919.154         3487.07 
        919.251         4039.08 
        919.446         4604.32 
         919.64         3798.59 
        919.834         2151.66 
        919.841         2095.94 
        920.028         1083.93 
        920.215         997.512 
        920.403         1091.76 
         920.59         2153.71 
        920.777         4144.36 
        920.964         6241.53 
        921.151         7446.71 
        921.339         7732.94 
        921.526         6926.65 
        921.713         5228.05 
          921.9         3318.02 
        922.087         1724.49 
        922.144         1400.14 
        922.274         1044.42 
        922.405         1039.62 
        922.535         1049.55 
        922.665         1414.11 
         922.76         2020.45 
         922.78         2180.59 
        922.795         2306.64 
         922.81         2437.11 
         922.86         2907.15 
         922.96         3967.58 
         923.06         5102.51 
         923.16         6316.71 
         923.26         7557.92 
        923.361         8690.68 
        923.461         9644.56 
        923.561         10317.6 
        923.661         10810.6 
        923.761         11128.6 
        923.861         11291.6 
        923.961         11287.4 
        924.061         11116.1 
        924.161         10757.7 
        924.261         10213.6 
        924.362         9506.62 
        924.462          8683.3 
        924.562         7769.13 
        924.662         6765.45 
        924.762         5701.39 
        924.862         4632.12 
        925.062         2626.71 
        925.262         1304.77 
          925.4         1099.71 
        925.442         1100.58 
        925.463         1101.01 
        925.484         1101.45 
        925.568         1103.18 
        925.736         1449.12 
        925.904         2659.39 
        926.072         4384.66 
        926.112         4830.14 
         926.24         6292.17 
        926.369         7773.93 
        926.497         9197.08 
        926.625         10599.6 
        926.753         11947.1 
        926.881         13156.5 
        927.009           14159 
        927.137         14957.3 
        927.265         15535.1 
        927.394         15947.4 
        927.522         16229.1 
         927.65           16384 
        927.778         16393.7 
        927.906         16248.9 
        928.034         15950.8 
        928.102         15714.6 
        928.142         15552.2 
        928.162           15465 
        928.182         15373.2 
        928.262         14965.7 
        928.423         13995.6 
        928.583         12820.3 
        928.743         11463.4 
        928.903         9973.46 
        928.985          9163.9 
        929.037         8634.23 
        929.063         8364.49 
        929.089         8089.79 
        929.125         7699.95 
        929.193         6942.54 
        929.261         6192.93 
        929.398         4722.13 
        929.493         3724.86 
        929.525         3402.03 
        929.534         3312.78 
        929.543         3224.28 
        929.593         2750.67 
        929.617         2539.87 
        929.655         2225.98 
        929.693         1945.45 
        929.769         1498.52 
        929.827         1287.79 
        929.883         1201.45 
         929.91         1196.04 
        929.939         1196.55 
        929.954         1196.88 
        929.968         1197.19 
        929.982          1197.5 
        929.996         1197.81 
         930.01         1198.12 
        930.024         1198.44 
        930.038         1198.74 
        930.052         1199.05 
        930.081          1199.7 
        930.137         1207.11 
        930.201         1318.41 
        930.247         1493.54 
        930.249          1502.6 
        930.251         1511.74 
        930.301         1790.56 
        930.326         1953.73 
        930.402         2558.01 
        930.478         3277.84 
         930.63          4902.9 
        930.633         4936.07 
        930.782         6622.76 
        930.931         8369.96 
         931.08         10013.2 
        931.229         11606.7 
        931.379         13156.6 
        931.516         14496.5 
        931.528         14615.8 
        931.677         16050.2 
        931.838         17565.2 
        931.999         19007.3 
         932.16         20278.9 
        932.321         21433.7 
        932.483         22311.6 
        932.644         23073.1 
        932.805           23683 
        932.851         23827.5 
        932.966         24154.8 
        932.989         24213.9 
        933.127           24523 
        933.265         24751.9 
        933.403         24897.9 
        933.432         24914.1 
        933.542         24930.4 
        933.652         24885.1 
        933.762         24782.8 
        933.872           24596 
        933.982         24320.2 
        934.092         23953.7 
        934.202         23509.5 
        934.312         22988.8 
        934.413           22468 
        934.422         22421.5 
        934.533         21823.5 
        934.652         21111.7 
        934.771         20350.2 
         934.89         19580.2 
        935.009         18746.3 
        935.026         18622.3 
        935.128         17880.2 
         935.23         17128.2 
        935.332         16337.5 
        935.434           15514 
        935.537         14668.5 
        935.639         13781.8 
        935.741         12862.3 
        935.843         11888.6 
        935.945         10856.1 
         935.95         10803.8 
        936.047         9788.51 
        936.144         8747.23 
        936.338         6543.56 
        936.464         5094.82 
        936.532         4321.14 
        936.601         3578.37 
        936.645         3124.29 
        936.714         2488.06 
        936.737         2300.02 
        936.829         1698.59 
        936.887         1467.11 
        936.944         1367.36 
        936.973         1361.27 
        937.001         1361.89 
        937.015         1362.24 
        937.029         1362.59 
        937.043         1362.93 
        937.058          1363.3 
        937.072         1363.65 
        937.086            1364 
        937.101         1364.37 
        937.115         1364.72 
        937.143         1365.41 
          937.2         1373.74 
        937.314         1708.44 
        937.428         2501.88 
        937.493         3110.32 
        937.542          3625.4 
        937.593         4194.21 
        937.694         5366.15 
        937.788         6489.75 
        937.794         6561.12 
        937.894         7759.61 
            938          9017.5 
        938.106         10223.3 
        938.212         11409.8 
        938.318         12560.4 
        938.424         13653.1 
         938.53         14697.6 
        938.636         15717.4 
        938.743         16707.5 
        938.784         17084.6 
        938.849         17677.9 
        938.914         18264.2 
        939.044         19393.3 
        939.077         19685.8 
        939.174         20550.5 
        939.271         21384.4 
        939.465         23024.3 
        939.659         24653.6 
        939.854         26267.5 
        940.048         27845.4 
        940.242         29338.2 
        940.436         30696.9 
         940.52         31252.3 
         940.63         31955.7 
         940.74         32630.8 
        940.851         33194.7 
        940.961         33732.9 
        941.181         34738.2 
        941.401         35630.1 
        941.621         36405.4 
        941.841         37098.4 
        942.062         37699.4 
        942.282         38206.2 
        942.502         38599.5 
        942.722         38884.4 
        942.837           38989 
        942.942         39058.8 
        943.048         39103.4 
        943.258         39096.2 
        943.468         38907.4 
        943.678         38592.6 
        943.888         38153.1 
        944.099         37570.9 
        944.309         36801.9 
        944.519         35910.9 
        944.571         35673.4 
        944.729         34912.8 
        944.755         34782.8 
        944.939           33856 
        945.123         32872.7 
        945.308         31818.4 
        945.492         30791.8 
        945.676         29739.8 
         945.86         28622.7 
        946.044         27495.8 
        946.228         26307.4 
        946.413           25078 
        946.597         23825.8 
        946.781         22528.7 
        946.965         21207.3 
        947.108         20112.3 
         947.14         19860.3 
        947.149           19789 
        947.158         19717.3 
        947.208         19311.8 
        947.308         18467.5 
        947.509         16662.2 
        947.709         14660.1 
        947.735         14384.1 
        947.909         12423.1 
        948.083         10302.4 
        948.257          8026.2 
        948.317         7230.78 
        948.431         5718.64 
        948.546         4262.98 
         948.66         2999.75 
        948.727         2414.08 
        948.761         2174.08 
        948.771         2113.34 
        948.774         2095.99 
        948.777         2078.87 
        948.827         1839.99 
        948.835         1811.95 
        948.893         1692.76 
        948.922         1686.07 
        948.951          1686.9 
        948.966         1687.35 
         948.98         1687.76 
        948.994         1688.18 
        949.009         1688.63 
        949.023         1689.05 
        949.037         1689.46 
        949.052         1689.91 
        949.066         1690.33 
        949.095          1691.2 
        949.153         1700.55 
         949.23         1896.63 
        949.258         2034.59 
        949.269         2096.73 
         949.28          2162.1 
         949.33         2528.29 
         949.36         2789.54 
         949.43         3502.31 
          949.5         4330.69 
         949.64         6183.91 
        949.781         8112.88 
        949.795         8306.21 
        949.879         9468.76 
        949.921         10043.9 
        949.963         10609.3 
        950.131           12782 
        950.299         14825.7 
        950.467         16707.1 
        950.635         18456.5 
        950.719         19282.7 
        950.804         20088.7 
        950.888         20866.5 
        951.056         22360.9 
        951.224         23776.2 
        951.392         25175.1 
        951.728         27928.2 
        952.065         30642.1 
        952.401         33276.7 
        952.738         35871.6 
        953.413         41266.7 
         953.75           43921 
        953.918         45236.7 
        954.087         46470.8 
        954.256         47607.1 
        954.425         48714.2 
        954.593         49801.8 
        954.762         50865.2 
        954.859         51443.3 
         954.93         51831.3 
        955.099         52733.5 
        955.437         54496.6 
        956.014         57347.3 
        956.592         59965.1 
        957.169         62380.4 
        957.747         64557.8 
        958.036           65538 
        958.324         66440.9 
        958.514         66990.7 
        958.613         67261.2 
        958.901         67991.6 
        959.289           68820 
        959.676         69469.4 
        959.697         69499.3 
        960.063         69938.1 
         960.43         70207.4 
        960.796         70311.7 
        961.162         70250.4 
        961.529         70035.8 
        961.895         69674.9 
        962.261         69174.7 
        962.628         68543.3 
        962.994         67782.4 
         963.36         66911.8 
        963.727         65936.1 
        963.955         65285.1 
        964.093         64874.5 
        964.231           64441 
        964.507           63545 
         965.06         61616.1 
        965.612         59499.6 
        966.165           57187 
        966.717         54692.3 
        966.993         53335.1 
        967.269         51935.6 
        967.546         50468.4 
        967.612         50102.1 
        967.822         48908.3 
        968.032         47657.3 
        968.242         46333.8 
        968.452         44958.7 
        968.663         43502.3 
        968.873         41965.4 
        969.083         40337.1 
        969.247           38990 
        969.289         38630.6 
        969.293         38596.4 
        969.297         38562.1 
        969.347         38126.1 
        969.447         37233.2 
        969.647         35356.4 
        969.768         34151.9 
        969.847         33338.3 
        969.927         32493.8 
        970.085           30703 
        970.243         28804.5 
        970.401         26737.2 
        970.559           24479 
        970.717         21963.6 
        970.874         19185.7 
        971.031         16097.3 
        971.189         12679.4 
        971.298         10147.7 
        971.344         9063.37 
        971.346         9016.03 
        971.348         8968.68 
        971.398         7792.56 
        971.411         7490.94 
        971.467         6224.78 
        971.498         5557.26 
        971.585         3942.67 
        971.644          3134.7 
        971.703         2643.08 
        971.732         2532.18 
        971.762         2498.13 
        971.778         2496.86 
        971.792         2497.36 
        971.806         2497.95 
        971.821         2498.57 
        971.827         2498.83 
        971.833         2499.08 
        971.836          2499.2 
        971.839         2499.33 
        971.851         2499.83 
        971.866         2500.46 
         971.88         2501.04 
         971.91         2502.99 
        971.969         2624.23 
        972.037         3187.84 
        972.087         3878.26 
        972.137         4748.52 
         972.15         5000.69 
        972.199         6020.58 
        972.237         6874.31 
        972.324         8920.33 
        972.348         9505.61 
        972.499         13004.7 
        972.649           16239 
        972.798         19149.8 
        972.948         21740.2 
        973.097         24055.5 
        973.247         26134.1 
        973.396         28048.5 
        973.545         29816.6 
        973.645         30933.8 
        973.696         31469.6 
        973.746         31998.4 
        973.846         33040.1 
        974.046         35021.5 
        974.246         36855.9 
        974.446         38638.4 
        974.646         40364.8 
        974.846         41941.5 
        974.853         41996.2 
        975.047         43488.8 
        975.051         43515.8 
        975.247         45030.6 
        975.444         46381.8 
         975.64           47674 
        976.033         50227.2 
        976.427         52647.8 
         976.82         55162.3 
        977.607         60352.5 
            978         62934.9 
        978.393         65388.5 
        978.589         66688.5 
        978.786         68077.7 
        978.983         69563.3 
        979.055         70127.3 
         979.18         71148.6 
        979.305         72223.6 
        979.555         74173.9 
        979.805         76311.8 
        980.055         78440.9 
        980.306         80207.7 
        980.556         82076.6 
        981.056         85304.6 
        981.557         88385.3 
        982.557         94297.7 
        983.193           97996 
        983.558          100226 
        983.923          102568 
        984.654          107094 
        985.612          112695 
        986.115          115742 
        986.366          117219 
        986.618          118705 
         986.87          119960 
        987.122          120882 
        987.374          121778 
        987.625          122625 
        987.877          123427 
        988.128          124201 
        988.381          125468 
        988.632          126727 
        988.884          127884 
        988.958          128149 
        989.135          128772 
        989.312          129383 
        989.666          130158 
        990.021          130397 
        990.375          130809 
        990.729          131413 
        991.084          132528 
        991.438          134055 
        991.792          136074 
        992.146          138369 
        992.501          141267 
        992.539          141613 
        992.855          144606 
        993.209          148252 
        993.544          151955 
         993.88          154774 
        994.048          155946 
        994.215          157131 
        994.383          158097 
         994.55          158467 
        994.718          158826 
        994.885          159177 
        995.053          159563 
