# Koester WD models
# teff = 11000 K (value for the effective temperature for the model. Temperatures are given in K)
# logg = 7.5 log(cm/s2) (value for Log(G) for the model.)
#
# column 1: WAVELENGTH (ANGSTROM), Wavelength in Angstrom
# column 2: FLUX (ERG/CM2/S/A), Flux in erg/cm2/s/A
         899.23         1078.37 
        901.732          1131.9 
        904.235         1187.71 
        906.738         1245.91 
         908.45         1287.12 
        909.241         1306.55 
        910.032         1326.24 
        911.193         1355.62 
        911.613         1366.39 
        912.034         1377.25 
        912.465         1389.01 
         912.67         1395.93 
        912.875         1404.92 
        912.977         1410.37 
         913.08         1415.49 
        913.182         1408.94 
        913.284         1409.94 
        913.361         1412.26 
        913.386         1413.76 
        913.446         1414.49 
        913.488         1415.36 
        913.531         1416.49 
        913.581         1417.82 
        913.702         1425.48 
        913.822         1424.21 
        913.942         1436.26 
        913.959         1446.63 
        914.062          1432.7 
        914.165         1433.39 
        914.268         1438.87 
        914.371         1557.46 
        914.373         1557.37 
        914.474         1443.51 
        914.575         1444.43 
        914.677          1449.3 
        914.778         1703.64 
        914.879         1676.23 
        914.889         1641.62 
         914.98         1455.68 
        915.071         1457.85 
        915.253         1718.38 
        915.435         2107.24 
         915.54         1517.99 
        915.593         1472.21 
        915.609         1472.54 
        915.618         1472.78 
        915.643         1473.47 
        915.677         1474.41 
        915.813         1529.05 
        915.949         2658.89 
        916.085         3158.21 
        916.221          2007.7 
        916.285         1571.47 
        916.357         1493.21 
        916.429         1495.21 
        916.574         1582.91 
        916.718         3199.52 
        916.862         4713.43 
        917.006         4220.76 
         917.15         2332.99 
         917.21         1739.39 
        917.294         1519.48 
        917.378          1521.8 
        917.547         1754.82 
        917.715         4263.11 
        917.883         7064.75 
        918.051         7394.71 
        918.219          5056.8 
        918.387         2220.39 
        918.417         1908.15 
         918.51         1554.32 
        918.556         1555.35 
        918.602         1556.67 
        918.786         1924.46 
         918.97         5114.76 
        919.057         7386.01 
        919.154          9494.3 
        919.251         10904.1 
        919.446         11963.7 
         919.64         9863.63 
        919.834         5497.94 
        919.841         5328.86 
        920.028         2001.87 
        920.215         1603.73 
        920.403         2016.49 
         920.59         5498.86 
        920.777         10681.7 
        920.964         15264.9 
        921.151         17594.2 
        921.339         18081.6 
        921.526           16569 
        921.713         13214.9 
          921.9         8753.55 
        922.087         4157.08 
        922.144         3073.95 
        922.274         1710.15 
        922.405         1669.55 
        922.535         1718.32 
        922.665         3103.94 
         922.76         5075.31 
         922.78         5569.67 
        922.795         5953.73 
         922.81         6344.16 
         922.86         7672.62 
         922.96         10406.8 
         923.06         13107.8 
         923.16         15734.7 
         923.26           18363 
        923.461         22875.2 
        923.661         25498.3 
        923.861         26571.9 
        924.061         26181.2 
        924.261         24217.2 
        924.462         20983.9 
        924.662         16874.9 
        924.862         12025.6 
        925.062         6822.35 
        925.262         2601.18 
          925.4         1763.37 
        925.442         1764.71 
        925.463         1765.38 
        925.484         1766.06 
        925.568         1768.77 
        925.736         3102.16 
        925.904         6899.63 
        926.072         11415.3 
        926.112         12506.3 
         926.24           15860 
        926.369         19051.7 
        926.497         22047.3 
        926.625         24929.7 
        926.753         27721.2 
        926.881         30312.5 
        927.009         32550.4 
        927.137         34411.1 
        927.265           35773 
        927.394         36732.4 
        927.522           37351 
         927.65         37646.6 
        927.778         37598.6 
        927.906         37196.5 
        928.034           36445 
        928.102         35864.4 
        928.142         35480.5 
        928.162         35276.6 
        928.182         35065.5 
        928.262         34142.2 
        928.423         32020.1 
        928.583         29551.1 
        928.743         26675.9 
        928.903         23622.7 
        928.985         21958.7 
        929.037         20856.8 
        929.063         20293.1 
        929.089         19719.1 
        929.125         18896.8 
        929.193         17274.1 
        929.261         15639.1 
        929.398         12225.6 
        929.493         9724.74 
        929.525         8871.48 
        929.534         8631.09 
        929.543          8390.5 
        929.593         7063.78 
        929.617         6438.32 
        929.655         5481.64 
        929.693          4587.1 
        929.769         3097.76 
        929.827         2320.42 
        929.883         1948.01 
         929.91         1914.28 
        929.939         1914.23 
        929.954         1914.74 
        929.968         1915.22 
        929.982         1915.71 
        929.996         1916.19 
         930.01         1916.67 
        930.024         1917.16 
        930.038         1917.64 
        930.052         1918.12 
        930.081         1919.12 
        930.137         1956.93 
        930.201         2420.16 
        930.247         3059.36 
        930.249         3091.42 
        930.251         3123.84 
        930.301         4064.59 
        930.326         4591.03 
        930.402         6471.08 
        930.478          8521.6 
         930.63         12663.7 
        930.633         12743.5 
        930.782         16609.2 
        930.931         20352.4 
         931.08         23760.5 
        931.229         26990.1 
        931.379         30162.7 
        931.516         32863.6 
        931.528         33097.6 
        931.677         35889.9 
        931.838         38812.2 
        931.999         41554.8 
         932.16         43973.8 
        932.321         46225.7 
        932.483         48023.6 
        932.644         49611.4 
        932.805           50857 
        932.966         51781.3 
        933.127         52485.6 
        933.173         52644.9 
        933.288         52957.5 
        933.403         53142.9 
         933.45         53157.3 
        933.496           53146 
        933.519         53131.2 
        933.542         53110.8 
         933.58         53064.6 
        933.616         53005.6 
        933.634         52970.7 
        933.652         52932.1 
        933.724         52744.2 
        933.868         52197.6 
        934.012         51402.4 
        934.156         50342.5 
          934.3         49067.3 
        934.444           47674 
        934.526         46851.2 
        934.589         46173.6 
        934.652         45469.8 
        934.778         43987.6 
         934.83         43360.3 
        934.904         42425.3 
         935.03         40728.2 
         935.23           37936 
         935.43         34914.4 
        935.631         31634.9 
        935.831           27980 
        935.918         26224.5 
        936.031         23820.9 
        936.144         21293.1 
        936.257         18552.5 
         936.37         15672.3 
        936.483         12586.5 
         936.55         10670.9 
        936.593         9453.62 
        936.597         9337.82 
        936.601         9221.93 
        936.651         7784.14 
        936.673         7163.49 
        936.714         6049.95 
        936.751         5116.08 
        936.829         3481.42 
        936.887         2632.54 
        936.944         2206.61 
        936.973         2170.42 
        937.001         2171.05 
        937.015         2171.59 
        937.029         2172.12 
        937.043         2172.66 
        937.058         2173.24 
        937.072         2173.77 
        937.086         2174.32 
        937.101         2174.89 
        937.115         2175.43 
        937.143         2176.51 
          937.2         2216.61 
        937.314         3492.92 
        937.428         6068.36 
        937.493         7890.77 
        937.542          9332.2 
        937.593         10848.8 
        937.694         13771.5 
        937.794         16565.7 
        937.894         19210.9 
         937.95         20666.7 
        937.988         21614.2 
        937.994         21762.9 
            938         21911.7 
         938.05         23124.1 
         938.15         25444.7 
         938.25         27711.4 
         938.45         31873.7 
         938.65         35657.7 
        938.788         38092.4 
        938.851         39199.2 
        938.914         40285.6 
         939.04         42360.9 
        939.061         42711.2 
        939.166         44508.8 
        939.271         46233.9 
        939.481         49549.5 
        939.483         49580.9 
        939.691           52780 
        939.798         54398.2 
        939.955           56865 
        940.112         59248.9 
        940.269         61555.1 
        940.426         63720.9 
        940.583         65780.2 
         940.69         67154.1 
         940.74         67774.5 
         940.79         68315.2 
        940.891         69374.2 
        941.091         71381.4 
        941.291         73221.1 
        941.491         74832.7 
        941.691         76280.7 
        941.891         77577.5 
        942.092         78714.2 
        942.292           79678 
        942.337         79863.4 
        942.492         80425.4 
        942.515           80497 
        942.692         80971.7 
         942.87         81281.8 
        942.998         81409.3 
        943.048         81435.1 
        943.098         81447.4 
        943.198         81430.1 
        943.398         81048.7 
        943.598         80393.7 
        943.798         79493.6 
        943.998         78353.5 
        944.199           76909 
        944.399         75255.6 
        944.599           73398 
        944.799         71419.4 
        945.091         68487.7 
          945.2         67358.9 
        945.308         66172.6 
        945.524           63878 
         945.74         61513.6 
        945.956         59013.9 
        946.172         56467.6 
        946.389           53796 
        946.484         52646.5 
        946.652         50526.5 
        946.821         48338.7 
        946.989         46021.8 
        947.108         44297.4 
        947.158         43536.8 
        947.208         42761.5 
        947.308           41152 
        947.509         37663.6 
        947.709         33744.2 
        947.735         33196.9 
        947.909         29265.8 
        948.083         24889.3 
        948.257           19987 
        948.317         18187.8 
        948.431         14596.9 
        948.546         10822.3 
         948.66          7162.3 
        948.727         5309.67 
        948.761         4514.78 
        948.771         4304.58 
        948.774         4244.01 
        948.777         4184.29 
        948.827         3321.89 
        948.835         3216.11 
        948.893         2710.24 
        948.922         2672.45 
        948.951         2673.44 
        948.966         2674.12 
         948.98         2674.77 
        948.994         2675.41 
        949.009          2676.1 
        949.023         2676.74 
        949.037         2677.39 
        949.052         2678.08 
        949.066         2678.72 
        949.095         2680.06 
        949.153         2722.37 
         949.23         3512.71 
        949.258         4003.93 
        949.269         4218.59 
         949.28         4444.79 
         949.33         5643.49 
         949.36         6473.35 
         949.43         8639.13 
          949.5         10983.4 
         949.64         15725.9 
        949.781         20204.2 
        949.879         23162.6 
        949.921         24395.8 
        949.963         25587.1 
        950.047         27879.2 
        950.215         32182.8 
        950.383           36073 
        950.551           39629 
        950.719         42895.6 
        950.838           45047 
        950.888         45929.1 
        950.938         46798.1 
        951.038         48481.4 
        951.238           51694 
        951.339         53237.7 
        951.438         54773.4 
        951.638         57761.3 
        952.039           63790 
        952.389         68978.4 
        952.738         74089.1 
        953.088         79421.7 
        953.438         84962.8 
        953.788         90659.1 
        954.137         96291.1 
        954.488          101608 
        954.662          104199 
        954.837          106749 
        955.012          108949 
        955.187          111108 
        955.361          113239 
        955.537          115352 
        955.759          117996 
        955.887          119452 
        956.014          120878 
        956.269          123679 
         956.78          129033 
         957.29          134045 
        957.801          138594 
        958.311          142561 
        958.354          142868 
        958.821          145859 
        959.289          148186 
        959.756          149816 
        960.017          150422 
        960.224          150741 
         960.43          150912 
        960.842          150851 
        961.254          150256 
        961.667          149172 
        962.079          147645 
        962.491          145692 
        962.904          143387 
        963.226          141349 
        963.316          140753 
        963.729          137859 
        964.231          134026 
        964.733          129871 
        965.236          125487 
        965.738          120845 
        966.241          116023 
        966.459          113847 
        966.743          110958 
        966.852          109810 
        967.245          105626 
        967.639          101305 
        968.032           96767 
         968.34         93033.6 
        968.425         91983.9 
        968.579         90002.5 
        968.819         86791.8 
        969.058         83436.9 
        969.297         79817.8 
        969.536         75933.9 
        969.624         74404.2 
        969.775         71685.8 
        969.927         68781.7 
        970.078         65660.2 
        970.229         62309.1 
         970.38         58627.8 
        970.531         54630.7 
        970.682           50137 
         970.71         49233.2 
        970.792         46504.1 
        970.833         45073.7 
        970.874         43598.4 
        971.038         37173.5 
        971.057         36373.7 
        971.203         29750.7 
        971.348         22169.4 
        971.401         19172.1 
        971.467         15328.1 
        971.493           13810 
        971.585         8764.89 
        971.644         6191.45 
        971.703          4510.6 
        971.732         4092.11 
        971.762         3929.06 
        971.778         3915.27 
        971.792         3915.34 
        971.806         3916.22 
        971.821         3917.19 
        971.827         3917.57 
        971.833         3917.94 
        971.836         3918.13 
        971.839         3918.32 
        971.851         3919.11 
        971.866         3920.05 
         971.88         3920.96 
         971.91         3929.94 
        971.969         4424.02 
        972.037         6340.27 
        972.087         8529.86 
        972.137         11162.2 
         972.15         11896.6 
        972.237         17009.1 
        972.324         22052.1 
        972.499         31149.8 
        972.548         33453.6 
        972.673         38820.7 
        972.798         43629.5 
        972.923         47915.6 
        973.048         51766.5 
        973.173           55249 
        973.298         58397.8 
        973.423         61355.9 
        973.548         64122.1 
        973.601         65245.2 
        973.673         66698.8 
        973.746         68124.2 
         973.89         70889.1 
        974.034         73465.5 
        974.178         75908.7 
        974.466         80594.1 
        974.754         84971.3 
        975.022           88771 
        975.043         89069.2 
        975.176         90948.5 
        975.331         93041.1 
        975.485         94941.1 
         975.64         96829.2 
        975.949          100637 
        976.259          104188 
        976.568          107856 
        976.877          111735 
        977.186          115925 
        977.805          124010 
        978.114          128126 
        978.423          132236 
        978.732          136736 
        978.778          137448 
        979.042          141748 
        979.305          146578 
        979.568          151141 
        979.831          156231 
        980.094          161179 
        980.358          165483 
        980.621          170101 
        980.884          173952 
        981.147          177766 
         981.53          183301 
        981.674          185368 
        982.726          200213 
        983.622          213233 
        983.923          217984 
         985.12          235826 
        985.271          237996 
        985.945          248034 
        986.281          253018 
        986.618          257966 
        986.955          261828 
        987.292          264745 
        987.628          267486 
        987.965          270010 
        988.302          273352 
        988.639          277547 
        988.975          281105 
        989.312          283916 
         989.48          285281 
        989.649          285621 
        989.818          285776 
        989.986          285894 
        990.323          286455 
        990.659          287671 
        990.827          288234 
        990.996          289610 
        991.165          291395 
        991.333          293178 
        991.501          294944 
         991.67          297337 
        991.838          300132 
        992.006          302893 
        992.174          305703 
        992.342          309065 
        992.512          312979 
         992.68          317040 
        992.827          320731 
        992.848          321288 
        993.016          325739 
        993.353          335038 
        993.616          342877 
         993.88          348004 
        994.143          352763 
        994.275          355176 
        994.406          356649 
        994.538          357281 
        994.669          357890 
        994.801          358478 
        994.932          359068 
        995.195          360890 
        995.459          363033 
        995.591          364076 
        995.722          365103 
        995.854          368119 
        995.985          371226 
        996.117          374399 
