# Koester WD models
# teff = 11500 K (value for the effective temperature for the model. Temperatures are given in K)
# logg = 8.75 log(cm/s2) (value for Log(G) for the model.)
#
# column 1: WAVELENGTH (ANGSTROM), Wavelength in Angstrom
# column 2: FLUX (ERG/CM2/S/A), Flux in erg/cm2/s/A
         899.23         4037.95 
        901.099         4174.83 
        902.667          4292.7 
        904.235          4413.4 
        905.502         4513.02 
        907.372         4663.57 
         908.45         4752.35 
        909.241         4818.39 
        910.032         4885.18 
        911.193          4984.8 
        911.613         5021.27 
        911.824         5039.59 
        911.929         5048.79 
        912.034         5057.96 
        912.139         5078.51 
        912.244         5102.79 
        912.349         5128.56 
        912.454         5160.03 
        912.559         5194.22 
        912.664         5230.59 
         912.77         5269.77 
        912.875         5315.26 
        912.886            5320 
        913.085          5376.9 
        913.284         5323.65 
        913.339         5321.45 
        913.435         5300.24 
        913.483          5282.9 
        913.531         5282.71 
        913.625         5319.41 
        913.724            5284 
        913.822         5242.09 
        913.871         5262.45 
        914.018         5353.27 
        914.165         5229.31 
        914.312         5439.45 
        914.343         5516.48 
        914.459          5309.2 
        914.575         5249.07 
        914.692         5342.03 
        914.808          5868.4 
        914.924         5441.87 
        914.947          5347.9 
        915.009         5288.15 
         915.04         5286.17 
        915.071         5288.27 
        915.195         5378.25 
        915.319         6358.49 
        915.443         6224.34 
        915.492         5754.46 
         915.54          5436.9 
        915.568            5366 
        915.609         5338.85 
        915.643         5339.67 
        915.677         5342.56 
        915.813         5470.24 
        915.949         7071.51 
        916.085         7777.17 
        916.221         6166.98 
        916.285         5542.33 
        916.357         5406.46 
        916.429         5412.02 
        916.574         5575.26 
        916.718         7817.26 
        916.862         10073.5 
        916.922         10230.8 
        917.006          9481.3 
        917.036         8959.07 
         917.15          6702.4 
        917.264         5517.36 
        917.378         5500.93 
        917.493         5539.35 
        917.607         6825.17 
        917.721         9766.49 
        917.835         12730.5 
        917.949         14227.8 
        918.063         14019.3 
        918.177         11960.3 
        918.291         8916.25 
        918.405         6349.25 
        918.438         5917.85 
         918.52         5610.07 
        918.602         5617.39 
        918.766         5954.48 
         918.93         9811.16 
        918.937         10052.6 
        919.094         15622.9 
        919.251           19810 
        919.409         21231.8 
        919.566         19915.7 
        919.723         15747.7 
         919.88         10343.1 
        920.037            6284 
        920.131         5766.39 
        920.173          5770.1 
        920.194         5772.17 
        920.215         5774.22 
        920.299         5782.92 
        920.468         7904.88 
        920.636         13839.4 
        920.804         20897.3 
        920.972         26582.2 
         921.14         29964.4 
        921.308         31209.9 
        921.477         30114.7 
        921.645         26440.4 
        921.813           20725 
        921.981         14116.9 
        922.149         8193.59 
         922.23         6481.01 
        922.318         5984.58 
        922.405         5992.96 
        922.579         6519.34 
        922.696         9350.92 
        922.753         11375.4 
         922.81         13652.3 
        922.924         18570.1 
        923.038         23477.2 
        923.152         28496.1 
        923.266         33156.1 
        923.381         37028.1 
        923.495         40063.2 
        923.609         42169.6 
        923.723           43752 
        923.837         44792.8 
        923.951         45185.8 
        924.065         44929.5 
        924.179         43855.1 
        924.294         41985.2 
        924.408           39230 
        924.522         35932.3 
        924.636         32120.9 
         924.75         27767.6 
        924.864         23088.3 
        924.978         18314.8 
        925.092         13509.7 
        925.157         10966.8 
        925.206         9299.11 
        925.321         6672.77 
        925.484         6312.56 
        925.647         6709.34 
         925.81         11086.7 
        925.973         17946.8 
        926.136         25144.2 
         926.23           29361 
          926.3         32397.7 
        926.369         35304.6 
        926.507         41121.2 
        926.645         46811.3 
        926.783         51900.1 
        926.921         56205.6 
        927.059         59354.1 
        927.197         61821.5 
        927.337         63666.3 
        927.475         65064.6 
        927.613         65983.5 
        927.751         66384.4 
        927.889           66118 
        928.027         65218.2 
        928.114         64217.9 
        928.148         63746.4 
        928.165         63493.2 
        928.182           63228 
         928.25           62054 
        928.387         59154.6 
        928.523         55534.2 
        928.659         51824.7 
        928.773         48390.6 
        928.795         47689.1 
        928.931         43076.6 
        929.089         37224.1 
        929.205         32448.9 
        929.233           31252 
        929.247         30652.2 
        929.261         30049.6 
        929.316         27705.2 
        929.318         27607.5 
        929.429         22730.6 
        929.543         17698.7 
        929.544           17636 
        929.657         12833.2 
        929.769         8885.24 
        929.833         7409.76 
         929.88         6886.81 
        929.881         6878.27 
        929.883         6869.88 
         929.91         6800.13 
        929.927         6799.25 
        929.933         6799.91 
        929.939         6800.61 
        929.954          6802.3 
        929.968         6803.87 
        929.982         6805.48 
        929.996         6807.05 
         930.01         6808.65 
        930.024         6810.22 
        930.038         6811.82 
        930.052         6813.39 
        930.081         6816.69 
        930.137         6898.94 
        930.201         7725.11 
        930.247         8840.69 
        930.249         8897.74 
        930.251         8955.42 
        930.301         10587.7 
        930.326         11466.4 
        930.402         14563.7 
        930.478         17961.7 
         930.63         24888.1 
        930.633         25024.1 
        930.782         31830.3 
        930.931         38423.6 
         931.08         44511.7 
        931.229           50356 
        931.379         55917.8 
        931.528         61541.6 
        931.677         67483.9 
        931.788         71739.8 
        931.814         72695.5 
        931.826         73132.5 
        931.838         73567.3 
        931.888         75352.7 
        931.988         78758.8 
        932.088         81717.2 
        932.188         84432.2 
        932.288           86914 
        932.389         88939.4 
        932.489         90691.5 
        932.589         92296.9 
        932.789         95052.7 
        932.989         97202.1 
        933.189         98837.3 
        933.347         99758.4 
        933.375         99887.3 
        933.377           99896 
        933.389         99947.6 
        933.403          100005 
        933.432          100114 
         933.46          100207 
        933.542          100405 
        933.652          100538 
        933.762          100575 
        933.872          100339 
        933.982         99706.9 
        934.092           98629 
        934.202         97196.8 
        934.312         95410.8 
        934.413         93510.1 
        934.422         93331.1 
        934.533         90948.8 
        934.652         88054.4 
        934.771         84870.8 
         934.89         81713.1 
        935.009         78358.2 
        935.026         77868.1 
        935.128         74963.1 
         935.23           72049 
        935.332         68985.6 
        935.434         65752.9 
        935.537         62405.5 
        935.639         58941.6 
        935.741         55453.2 
        935.843         51781.6 
        935.945         47917.8 
         935.95         47720.5 
        936.047         43922.6 
        936.144         40024.5 
        936.338         31799.2 
        936.464         26029.5 
        936.532         22810.6 
        936.601           19552 
        936.645         17465.5 
        936.714         14341.9 
        936.737         13364.7 
        936.829         9976.44 
        936.887         8481.14 
        936.944         7723.07 
        936.973         7638.15 
        937.001         7639.79 
        937.015         7641.55 
        937.029         7643.31 
        937.043         7645.03 
        937.058         7646.92 
        937.072         7648.68 
        937.086         7650.41 
        937.101         7652.29 
        937.115         7654.05 
        937.143         7657.54 
          937.2         7755.43 
        937.314         10022.9 
        937.428         14414.7 
        937.493         17409.5 
        937.542         19786.3 
        937.593         22295.6 
        937.694         27181.9 
        937.788         31659.1 
        937.894         36514.4 
            938         41135.7 
        938.106         45645.8 
        938.212         50079.8 
        938.318         54384.4 
        938.424         58498.3 
         938.53         62452.7 
        938.636         66457.9 
        938.784         71834.1 
        938.849         74132.8 
        938.914         76397.3 
        939.044         80760.6 
        939.077         81906.3 
        939.174         85361.2 
        939.271         88783.3 
        939.465         95759.2 
        939.659          102854 
        939.854          109757 
        940.048          116440 
        940.242          122584 
        940.436          127506 
         940.52          129528 
         940.63          132096 
         940.74          134536 
        940.851          136731 
        940.961          138824 
        941.181          142789 
        941.401          146395 
        941.621          149538 
        941.841          152343 
        942.062          154800 
        942.282          156925 
        942.502          158629 
        942.722          159931 
        942.837          160445 
        942.942          160816 
        943.048          161089 
        943.258          161690 
        943.468          161603 
        943.678          160931 
        943.888          159692 
        943.993          158873 
        944.099          157702 
        944.204          156191 
        944.309          154513 
        944.414          152655 
        944.519          150637 
        944.729          146250 
        944.939          141416 
        944.991          140137 
        945.149          136112 
        945.308          131905 
        945.624          123379 
         945.94          114788 
        946.098          110984 
        946.256          106978 
        946.415          102821 
        946.573         98511.9 
         946.62           97199 
        946.731         94051.4 
        946.889         89710.4 
        947.024         85843.1 
        947.158         81801.1 
        947.292         77529.2 
        947.428           73048 
        947.562         68276.5 
        947.697         63181.5 
        947.831         57744.7 
        947.849         57013.9 
        947.966         51947.8 
        948.083         46666.2 
          948.2         41109.3 
        948.317         35217.9 
        948.323         34907.2 
        948.434         29045.3 
        948.546         23009.1 
        948.657         17180.1 
        948.727         13942.7 
        948.759         12640.6 
        948.761         12564.1 
        948.768         12303.6 
        948.777         11979.3 
        948.827         10472.5 
        948.835         10269.1 
        948.893         9361.41 
        948.922          9257.3 
        948.951         9260.03 
        948.966         9262.23 
         948.98         9264.31 
        948.994         9266.35 
        949.009         9268.58 
        949.023         9270.62 
        949.037         9272.69 
        949.052         9274.89 
        949.066         9276.97 
        949.095         9281.24 
        949.153         9400.09 
         949.23         10836.3 
        949.258         11685.1 
        949.269         12071.3 
         949.28         12476.3 
         949.33         14550.6 
         949.36         15938.4 
         949.43         19492.3 
          949.5         23335.8 
         949.64         31149.9 
        949.781         38708.5 
        949.795         39435.2 
        949.879         43765.2 
        949.921         45853.4 
        949.963         47917.1 
        950.131           55882 
        950.299         63400.5 
        950.467         70414.4 
        950.635         76963.7 
        950.719         80071.7 
        950.804         83125.9 
        950.888         86085.6 
        951.056         91794.8 
        951.224         97257.4 
        951.392          102694 
        951.728          113549 
        952.064          123877 
        952.401          135219 
        952.738          147193 
        953.075          159552 
        953.413          171631 
         953.75          183608 
        953.918          189512 
        954.087          194812 
        954.256          199501 
        954.425          204127 
        954.593          208734 
        954.762          213339 
        955.099          222236 
        955.534          233487 
        955.774          239600 
        956.014          245025 
        956.254          250276 
        956.735          260318 
        957.215          269657 
        957.695          278155 
        958.024          283382 
        958.176          285632 
         958.34          287933 
        958.656          291979 
        958.973          295484 
        959.289          298416 
        959.413          299394 
        959.605          300728 
        959.667          301109 
        959.921          302469 
        960.176          303459 
         960.38          303946 
         960.43          304026 
         960.48          304098 
         960.58          304196 
         960.78          304214 
         961.18          303505 
        961.581          301865 
        961.981          299350 
        962.381          296012 
        962.782          291946 
        962.934          290176 
        963.182          287119 
        963.582          281729 
        964.231          271880 
        964.879          260855 
        965.528          248692 
        966.177          235560 
        966.501          228634 
        966.825          221371 
        966.915          219274 
        967.149          213778 
        967.194          212712 
        967.474          205900 
        967.753          198811 
        968.032          191481 
        968.311          183664 
         968.59          175618 
         968.87          167130 
        969.001          162920 
        969.149          158058 
        969.297          153028 
        969.445          147817 
        969.593          142326 
        969.741          136638 
        969.778          135182 
        969.852          132226 
         969.89          130729 
        969.927          129199 
        970.075          122870 
        970.223          116197 
        970.371          109076 
         970.46          104520 
        970.519          101421 
        970.563         99026.5 
        970.667           93151 
         970.77           86882 
        970.874         80239.1 
        970.978         73192.5 
        971.081         65609.3 
        971.186         57456.9 
         971.23         53728.8 
        971.289         48616.1 
        971.348         43301.5 
        971.466         32240.6 
        971.535         25810.7 
        971.567         23015.8 
        971.583         21672.5 
        971.584         21589.9 
        971.585         21507.6 
        971.635         17782.5 
        971.644         17200.3 
        971.703         14240.8 
        971.732         13481.6 
        971.762           13191 
        971.778         13170.6 
        971.792           13172 
        971.806         13174.7 
        971.821         13177.7 
        971.827         13178.9 
        971.833         13180.1 
        971.836         13180.7 
        971.839         13181.3 
        971.851         13183.6 
        971.866         13186.6 
         971.88         13189.4 
         971.91         13206.5 
        971.969         14102.1 
        972.037           17491 
        972.087         21172.8 
        972.137           25477 
         972.15         26651.9 
        972.237         34925.1 
        972.324         43177.1 
        972.499         58455.3 
        972.548         62383.5 
        972.673         71733.6 
        972.798         80240.7 
        972.923         87993.8 
        973.048         95096.3 
        973.173          101656 
        973.298          107694 
        973.423          113472 
        973.548          118880 
        973.601          121109 
        973.673          124057 
        973.746          126919 
         973.89          132483 
        974.034          137801 
        974.178          142857 
        974.466          152758 
        974.754          162164 
        975.043          171003 
        975.187          175455 
        975.331          179787 
        975.475          183662 
        975.556          185812 
        975.598          186931 
        975.619          187491 
         975.64          188051 
        975.724          190299 
        975.892          194830 
        976.228          203470 
        976.565          212308 
        976.901          221547 
        977.237          231551 
         977.86          248999 
         977.91          250491 
        978.221          259070 
        978.582          269458 
        978.763          275077 
        978.944          281049 
        979.125          287451 
        979.305          294394 
        979.666          307425 
        979.846          314643 
        980.027          321734 
        980.208          327426 
        980.389          333370 
        980.569          339616 
         980.75          345296 
         980.93          350313 
        981.111          355412 
        981.189          357651 
        981.291          360623 
        981.472          365600 
        981.834          375618 
        982.556          394886 
        983.923          432767 
        983.962          433945 
         985.29          470743 
        985.955          489532 
        986.286          498788 
        986.618          507983 
        986.951          515196 
        987.282          520653 
        987.614          525783 
        987.946          530499 
        988.278          536518 
