# Koester WD models
# teff = 11750 K (value for the effective temperature for the model. Temperatures are given in K)
# logg = 9.25 log(cm/s2) (value for Log(G) for the model.)
#
# column 1: WAVELENGTH (ANGSTROM), Wavelength in Angstrom
# column 2: FLUX (ERG/CM2/S/A), Flux in erg/cm2/s/A
         899.23         7337.66 
        901.457         7621.66 
        903.134         7841.57 
        903.685         7914.93 
        904.235         7988.88 
        905.336         8138.52 
        905.836         8207.19 
        907.538         8444.98 
         908.45         8574.69 
        909.241         8688.58 
        910.032         8803.75 
        911.193         8975.28 
        911.613         9038.02 
        911.824          9069.5 
        911.929         9085.23 
        912.034         9101.01 
        912.139         9152.02 
        912.244         9210.55 
        912.349         9271.66 
        912.454         9335.24 
        912.559         9405.46 
        912.664         9481.77 
         912.77         9560.56 
        912.875         9639.76 
        912.886         9647.96 
        913.085         9772.68 
        913.284         9846.66 
        913.339         9850.65 
        913.435         9853.17 
        913.483         9866.74 
        913.531          9879.9 
        913.625         9875.25 
        913.724         9830.39 
        913.822         9822.16 
        913.871         9840.03 
        914.018         9805.19 
        914.165         9625.05 
        914.312         9889.77 
        914.343         9927.78 
        914.459         9640.79 
        914.575         9456.26 
        914.692         9723.29 
        914.808         10192.5 
        914.924         9728.07 
        915.009         9434.49 
         915.04         9402.35 
        915.071         9396.35 
        915.133         9458.74 
        915.257         10147.3 
        915.381         10841.3 
        915.505         9884.77 
         915.54         9670.14 
        915.609         9459.74 
        915.617         9452.86 
         915.63         9441.59 
        915.643         9435.05 
        915.677         9433.64 
        915.813         9738.78 
        915.949         11378.4 
        916.085           12185 
        916.221         10441.2 
        916.285         9772.18 
        916.357          9542.4 
        916.429         9531.81 
        916.574         9833.44 
        916.718         12254.9 
        916.862         14810.9 
        917.006         14131.9 
         917.15           11029 
         917.21         10065.1 
        917.294         9682.07 
        917.378         9677.83 
        917.547         10134.3 
        917.715         14352.5 
        917.883         18853.9 
        918.051         19611.2 
        918.219         15871.3 
        918.387         11031.5 
         918.51          9872.3 
        918.556          9867.4 
        918.602         9874.59 
        918.694         9902.36 
        918.878         12803.8 
        919.062         20063.5 
        919.201         25090.8 
        919.241         26131.5 
        919.246         26247.7 
        919.251         26360.9 
        919.301         27237.4 
        919.402         27931.5 
        919.502         27369.1 
        919.602         25435.6 
        919.702         22312.8 
        919.802         18322.1 
        919.902         14464.5 
        920.002         11376.8 
        920.102         10151.3 
        920.163         10131.6 
        920.189         10135.9 
        920.202         10138.1 
        920.215         10140.2 
        920.267         10148.9 
        920.372         10459.4 
        920.476         12778.4 
         920.58         16805.7 
        920.684         21671.2 
        920.788         26616.2 
        920.892         31178.4 
        920.996         34925.1 
          921.1           37614 
        921.204         39209.9 
        921.308           39863 
        921.413           39432 
        921.517         37904.9 
        921.621         35199.7 
        921.725         31223.3 
        921.829         26881.7 
        921.933         22180.4 
        922.037         17388.4 
        922.141         13278.8 
        922.245         10820.7 
        922.294         10508.1 
         922.35         10500.9 
        922.405         10510.4 
        922.515         10545.9 
        922.625         12105.5 
         922.66           13136 
        922.735           16014 
         922.81         19446.5 
         922.96         27068.9 
         923.11         34951.2 
         923.26         42535.6 
        923.411         48523.2 
        923.561         52842.8 
        923.711         55727.1 
        923.861         57430.5 
        924.011         57835.8 
        924.161         56715.5 
        924.312         53886.2 
        924.462           49224 
        924.612         43193.8 
        924.762         36169.8 
        924.912         28519.7 
        925.062         21007.8 
        925.212         14303.1 
        925.241         13276.4 
        925.363         11068.5 
        925.484         11050.2 
        925.605           11112 
        925.726         13380.5 
        925.847         18419.8 
        925.968         24589.4 
        926.089         31046.4 
         926.21         37829.5 
        926.295           42497 
        926.332         44505.1 
        926.369         46446.2 
        926.443           50431 
        926.591         58204.9 
        926.739         65025.6 
        926.887         70660.1 
        927.035         74868.6 
        927.183         78142.7 
        927.332         80633.7 
         927.48           82529 
        927.628         83751.4 
        927.776           84298 
        927.924         84038.9 
        927.962         83843.5 
        928.072         82861.4 
        928.182         81195.1 
        928.293         78907.7 
        928.403         76004.9 
        928.513         72461.5 
        928.623         68715.1 
        928.733         64722.8 
        928.843         60455.2 
        928.953         55711.4 
        928.985         54261.3 
        929.037         51846.6 
        929.063         50604.5 
        929.089         49332.4 
        929.125         47518.8 
        929.193         43933.6 
        929.261         40244.4 
        929.398         32683.2 
        929.493         27518.5 
        929.526         25776.5 
        929.534         25307.3 
        929.543         24840.7 
        929.593         22200.1 
        929.617         20966.2 
        929.655         19093.3 
        929.693         17330.7 
        929.769         14263.8 
        929.827         12638.7 
        929.883         11927.6 
         929.91         11870.2 
        929.939         11872.7 
        929.954         11875.6 
        929.968         11878.2 
        929.982         11880.9 
        929.996         11883.6 
         930.01         11886.2 
        930.024         11888.9 
        930.038         11891.6 
        930.052         11894.3 
        930.081         11899.8 
        930.137         11976.3 
        930.201         12887.1 
        930.247         14236.8 
        930.249         14304.2 
        930.251           14373 
        930.301         16361.7 
        930.326           17414 
        930.402         21120.6 
        930.478         25202.6 
         930.63         33729.7 
        930.633         33900.9 
        930.782         42605.3 
        930.931         51080.4 
         931.08         58906.7 
        931.229         66321.5 
        931.379         73526.5 
        931.528         80903.2 
        931.677         88500.5 
        931.788         93742.3 
        931.814         94917.6 
        931.826         95450.4 
        931.838         95979.7 
        931.888         98156.5 
        931.988          102316 
        932.188          108653 
        932.389          113766 
        932.589          117780 
        932.789          121147 
        932.989          123821 
        933.189          125908 
        933.347          127149 
        933.375          127330 
        933.377          127342 
        933.389          127415 
        933.403          127498 
        933.432          127668 
         933.46          127822 
        933.542          128191 
        933.652          128549 
        933.762          128834 
        933.872          128818 
        933.982          128326 
        934.092          127273 
        934.202          125806 
        934.312          123927 
        934.413          121794 
        934.422          121587 
        934.533          118812 
        934.652          115382 
        934.771          111428 
         934.89          107295 
        935.009          102756 
        935.026          102088 
        935.128           98264 
         935.23           94627 
        935.332         90743.6 
        935.434         86640.1 
        935.537         82348.7 
        935.639         77873.5 
        935.741         73377.2 
        935.746         73148.8 
        935.843         68621.8 
        935.945         63575.5 
        936.144           53201 
        936.343         42351.5 
        936.484         34261.6 
        936.542         30877.8 
        936.601         27520.9 
        936.605         27291.4 
        936.717         21128.5 
        936.829         16011.9 
        936.894         14041.3 
        936.938         13383.9 
        936.941           13362 
        936.944         13347.3 
        936.973         13277.8 
        936.987         13279.1 
        936.994         13280.5 
        937.001           13282 
        937.015         13284.9 
        937.029         13287.9 
        937.043         13290.8 
        937.058         13293.9 
        937.072         13296.9 
        937.086         13299.8 
        937.101         13302.9 
        937.115         13305.9 
        937.143         13311.7 
          937.2         13401.3 
        937.314           16093 
        937.428         21410.3 
        937.493         24985.4 
        937.542         27851.4 
        937.593         30886.4 
        937.694         36903.3 
        937.788         42490.7 
        937.894         48662.6 
            938         54647.7 
        938.106           60585 
        938.212         66392.2 
        938.318         72005.6 
        938.424         77337.2 
         938.53         82461.8 
        938.571         84497.5 
        938.743         92676.4 
        938.899         99802.4 
        938.914          100467 
        939.085          108044 
        939.271          117322 
        939.457          126421 
        939.643          135416 
         939.83          143831 
        940.016          151834 
        940.202          159347 
        940.388          165179 
        940.408          165760 
        940.574          170413 
         940.74          174828 
        940.907          178913 
        941.073          182744 
        941.239          186314 
        941.405          189532 
        941.571          192402 
        941.737          195072 
         942.07          199781 
        942.236          201821 
        942.402          203560 
        942.421          203741 
        942.568          205035 
        942.734          206250 
        943.048          207792 
        943.204          208608 
        943.361          208987 
        943.517          208980 
        943.674          208595 
         943.83          207834 
        943.987          206708 
        944.144          204793 
        944.301          202232 
        944.457          199205 
        944.614          195675 
         944.77          191689 
        944.927          187427 
        945.083          182808 
        945.173          179990 
        945.241          177758 
        945.308          175438 
        945.442          170692 
         945.71          160657 
        945.844          155306 
        945.978          150792 
        946.112          146463 
        946.246          141878 
        946.381          137220 
        946.515          132443 
        946.783          122403 
        946.944          116275 
        947.051          112084 
        947.158          107795 
        947.265          103324 
        947.372         98720.5 
         947.48         93957.5 
        947.587         88925.6 
        947.694         83642.1 
        947.801         78079.3 
        947.908         72180.3 
        947.947         69944.4 
        948.015         66017.7 
        948.083         61963.8 
        948.219           53638 
        948.355           44904 
        948.437         39535.1 
        948.491         35966.2 
        948.546         32425.6 
        948.654         25640.3 
        948.717         22115.1 
        948.747         20591.2 
        948.762         19878.5 
        948.777         19185.5 
        948.781         19015.8 
        948.835         17094.2 
        948.837         17042.1 
        948.893         16067.3 
        948.922         15981.9 
        948.951         15987.3 
        948.966           15991 
         948.98         15994.4 
        948.994         15997.8 
        949.009         16001.5 
        949.023         16004.9 
        949.037         16008.4 
        949.052           16012 
        949.066         16015.5 
        949.095         16022.6 
        949.153         16131.3 
         949.23         17788.9 
        949.258         18862.9 
        949.269         19328.2 
         949.28         19843.1 
         949.33         22371.3 
         949.36         24021.4 
         949.43         28274.5 
          949.5         32875.8 
        949.598         39519.7 
         949.64         42377.9 
        949.781         51803.9 
        949.963         63589.9 
        950.145         74834.6 
        950.327         85333.5 
        950.509         95031.6 
        950.691          104068 
        950.832          110715 
         950.86          112023 
        950.874          112673 
        950.888          113321 
        950.944          115866 
        951.056          120905 
         951.28          130726 
        951.504          140534 
        951.728          150002 
        951.953          159379 
        952.065          163863 
        952.177          168426 
        952.289          174087 
        952.401          179647 
        952.513          185195 
        952.625          190708 
        952.738          196267 
        952.964          207123 
        953.417          228289 
        953.643          238789 
        953.869          249170 
        954.095          258796 
        954.322          267526 
        954.548          276208 
        954.774          284797 
        955.226          301333 
        955.343          305510 
        955.679          317244 
        956.014          327486 
        956.349          336842 
        956.685          345704 
         957.02          354101 
        957.355          362021 
         957.69          369344 
        958.026          376061 
        958.104          377538 
        958.361          382162 
          958.4          382831 
        958.696          387594 
        958.993          391794 
        959.289          395413 
        959.333          395900 
        959.585          398451 
        959.607          398652 
        959.881          400921 
        960.156          402705 
         960.38          403742 
         960.43          403921 
         960.48          404144 
         960.58          404527 
         960.78          405055 
         961.18          405099 
        961.581          403830 
        961.981          401254 
        962.381          397446 
        962.782          392539 
        963.182          386450 
        963.582          379520 
        963.735          376668 
        963.983          371795 
        964.231          366545 
        964.727          355229 
        965.224          342939 
         965.72          329704 
        966.217          315586 
        966.713          300592 
        967.209          284523 
        967.379          278905 
        967.706          267591 
        968.032          255729 
        968.358          243287 
        968.685          230029 
        968.725          228335 
        969.011          215971 
        969.154          209476 
        969.297          202855 
         969.44          195939 
        969.583          188665 
        969.726          181240 
        969.812          176597 
        969.869          173461 
        969.927          170273 
        970.041          163637 
        970.155          156804 
        970.269          149733 
        970.383          142349 
        970.497          134607 
        970.576          129060 
        970.611          126540 
        970.725          117813 
        970.874          105612 
        971.023         92255.4 
        971.173         77523.8 
        971.244         70010.1 
        971.296         64313.4 
        971.322         61431.3 
        971.348         58535.1 
        971.452         46715.8 
        971.527         38340.9 
        971.556           35281 
        971.583         32564.5 
        971.585         32373.2 
        971.643         27286.1 
        971.703         23674.3 
        971.732         22779.6 
        971.762         22465.2 
        971.778         22448.3 
        971.792         22451.6 
        971.806         22456.1 
        971.821           22461 
        971.827           22463 
        971.833         22464.9 
        971.836         22465.9 
        971.839         22466.9 
        971.851         22470.8 
        971.866         22475.6 
         971.88         22480.2 
         971.91         22498.4 
        971.969         23520.3 
        972.037           27594 
        972.087         32018.8 
        972.137         37137.7 
         972.15         38540.4 
        972.237         48413.2 
        972.324         58430.8 
        972.499         77524.1 
        972.548         82561.7 
        972.673         94588.3 
        972.798          105580 
        972.923          115617 
        973.048          124810 
        973.173          133330 
        973.298          141222 
        973.423          148821 
        973.548          156012 
        973.601          158970 
        973.673          162903 
        973.746          166735 
         973.89          174331 
        974.034          181538 
        974.178          188431 
        974.466          201834 
        974.754          214720 
        975.043          226703 
        975.187          232789 
        975.331          238604 
        975.475          243895 
        975.556          246881 
        975.598          248431 
        975.619          249204 
         975.64          249977 
        975.724          253073 
        975.892          259296 
        976.228          271108 
        976.565          282997 
        976.901          295647 
        977.237          309288 
         977.86          332974 
         977.91          335004 
        978.221          346675 
        978.582          360897 
        978.763          368606 
        978.944          376803 
        979.125          385530 
        979.305          394920 
        979.666          412501 
        979.846          422243 
        980.027          431837 
        980.208          439515 
        980.389          447492 
        980.569          455795 
         980.75          463328 
         980.93          469982 
        981.111          476756 
        981.291          483698 
        981.472          490302 
        981.834          503575 
        982.556          529041 
