# Koester WD models
# teff = 11250 K (value for the effective temperature for the model. Temperatures are given in K)
# logg = 9.5 log(cm/s2) (value for Log(G) for the model.)
#
# column 1: WAVELENGTH (ANGSTROM), Wavelength in Angstrom
# column 2: FLUX (ERG/CM2/S/A), Flux in erg/cm2/s/A
         899.23         3747.07 
        901.732         3918.16 
        904.235         4095.88 
        906.738         4280.48 
         908.45         4410.83 
        909.241         4472.15 
        910.032         4534.23 
        911.193         4626.72 
        911.613         4660.58 
        911.824         4677.58 
        911.929         4686.09 
        912.034         4694.61 
        912.139         4715.31 
        912.244         4736.77 
        912.349         4759.01 
        912.454         4782.01 
        912.559         4808.02 
        912.664         4836.07 
         912.77         4864.82 
        912.875         4893.69 
        912.886         4896.67 
        913.085         4947.79 
        913.284         4982.47 
        913.339         4985.93 
        913.435         4990.67 
        913.483         4997.61 
        913.531         5003.83 
        913.625          5003.9 
        913.724         4991.21 
        913.822          4993.5 
        913.871         4999.88 
        914.018         4989.54 
        914.165         4940.75 
        914.312         5024.38 
        914.343         5037.01 
        914.459         4950.55 
        914.575         4898.18 
        914.692         4985.08 
        914.808         5140.84 
        914.924         4993.03 
        915.009         4905.69 
         915.04         4898.78 
        915.071         4898.56 
        915.133         4917.63 
        915.257         5145.58 
        915.381         5376.87 
        915.505         5060.82 
         915.54         4996.26 
        915.609         4935.57 
        915.617         4934.28 
         915.63         4932.27 
        915.643          4931.3 
        915.677         4932.49 
        915.813         5027.77 
        915.949         5589.62 
        916.085         5883.17 
        916.221         5267.76 
        916.285            5053 
        916.357         4990.73 
        916.429          4991.9 
        916.574         5082.75 
        916.718         5928.41 
        916.862         6915.31 
        917.006         6655.34 
         917.15         5491.54 
         917.21          5173.1 
        917.294         5069.71 
        917.378         5073.33 
        917.547         5206.81 
        917.715         6758.01 
        917.883         8562.82 
        918.051         8879.24 
        918.219         7378.34 
        918.387         5524.27 
        918.417         5341.21 
         918.51         5175.05 
        918.556         5177.09 
        918.602         5181.18 
        918.786         5378.09 
         918.97         7540.54 
        919.057         9018.54 
        919.154         10616.2 
        919.251         11788.5 
        919.446         12494.8 
         919.64         11011.2 
        919.834          7923.6 
        919.841         7807.45 
        920.028         5508.94 
        920.215          5326.6 
        920.403         5545.41 
         920.59         8018.26 
        920.777           11856 
        920.964         15359.4 
        921.151         17543.5 
        921.339         18175.3 
        921.526         17166.5 
        921.713         14397.7 
          921.9         10794.4 
        922.087         7238.79 
        922.144         6411.33 
        922.274         5533.41 
        922.405         5529.45 
        922.535         5557.95 
        922.665         6469.67 
         922.75         7812.42 
         922.78         8368.98 
        922.795         8665.46 
         922.81         8967.24 
         922.87         10247.7 
         922.99         12958.3 
         923.11         15849.9 
         923.23         18773.3 
        923.351         21260.1 
        923.471         23295.7 
        923.591         24758.2 
        923.711         25839.7 
        923.831         26562.4 
        923.951         26866.6 
        924.071         26751.9 
        924.191         26101.1 
        924.312         24921.3 
        924.432         23162.3 
        924.552         20925.2 
        924.672         18462.6 
        924.792         15690.7 
        924.912         12915.7 
        925.032         10275.4 
        925.152         7889.32 
        925.273         6219.41 
        925.302         6002.96 
        925.393         5817.04 
        925.484         5825.86 
        925.666         6039.84 
        925.848         8596.78 
         926.03         12628.9 
        926.056         13236.5 
        926.212         17211.1 
        926.369         21271.8 
        926.525         25309.6 
        926.681         29043.9 
        926.838         32138.5 
        926.994           34549 
         927.15           36275 
        927.307           37598 
        927.463         38586.3 
        927.619         39227.8 
        927.776         39515.9 
        927.932         39374.5 
        927.994         39198.6 
        928.088         38739.9 
        928.182         38051.6 
        928.371         36026.2 
         928.56         33066.5 
        928.748         29854.3 
        928.783         29193.2 
        928.936         26070.6 
        929.089         22591.9 
        929.185         20223.7 
        929.223         19249.5 
        929.242         18760.6 
        929.261         18267.6 
        929.338         16310.6 
        929.439         13811.9 
        929.491         12568.1 
        929.543         11349.3 
        929.647         9092.46 
        929.719         7786.41 
        929.735         7538.47 
        929.752         7287.52 
        929.755         7243.85 
        929.769         7057.71 
        929.819         6548.68 
        929.827          6489.9 
        929.883         6285.23 
         929.91         6276.05 
        929.939         6278.69 
        929.954         6280.26 
        929.968         6281.74 
        929.982         6283.22 
        929.996         6284.69 
         930.01         6286.17 
        930.024         6287.61 
        930.038         6289.09 
        930.052         6290.57 
        930.081         6293.62 
        930.137         6311.96 
        930.201         6590.34 
        930.247          7061.7 
        930.249         7087.78 
        930.251         7114.11 
        930.301         7861.21 
        930.326         8282.27 
        930.402         9802.62 
        930.478         11523.9 
         930.63         15309.5 
        930.633         15387.6 
        930.782         19406.3 
        930.931         23466.9 
         931.08         27309.1 
        931.229           30977 
        931.379           34511 
        931.528         38114.7 
        931.788         44310.3 
        931.814         44875.1 
        931.826         45133.7 
        931.838           45390 
        931.888         46444.4 
        931.988         48411.3 
        932.088         50036.5 
        932.188           51524 
        932.288         52876.8 
        932.389         54022.8 
        932.489         55024.1 
        932.589         55947.1 
        932.789         57562.5 
        932.989         58876.3 
        933.189         59916.8 
        933.347         60543.8 
        933.375         60635.6 
        933.377         60641.8 
        933.389         60679.2 
        933.403         60721.6 
        933.432         60807.4 
         933.46           60885 
        933.542         61072.6 
        933.652         61250.4 
        933.762         61362.8 
        933.872         61329.9 
        933.982         61076.3 
        934.092         60572.4 
        934.202         59882.5 
        934.312         58998.8 
        934.413         58020.8 
        934.422         57926.9 
        934.533         56675.9 
        934.652         55079.7 
        934.771           53261 
         934.89           51338 
        935.009         49236.3 
        935.026         48921.5 
        935.128         47068.3 
         935.23           45276 
        935.332           43354 
        935.434         41322.9 
        935.537         39156.2 
        935.639         36889.8 
        935.741         34620.7 
        935.843         32212.3 
        935.945         29680.7 
         935.95         29553.8 
        936.047         27071.6 
        936.076         26322.5 
        936.144         24535.7 
        936.338         19466.2 
        936.372         18574.2 
        936.486         15567.8 
        936.601         12647.9 
        936.715         10006.7 
        936.829         7954.39 
        936.887         7313.78 
        936.944         7066.04 
        936.973         7054.73 
        937.001         7057.71 
        937.015         7059.35 
        937.029         7060.98 
        937.043         7062.58 
        937.058         7064.34 
        937.072         7065.94 
        937.086         7067.58 
        937.101         7069.34 
        937.115         7070.94 
        937.143         7074.21 
          937.2         7095.82 
        937.314         8002.74 
        937.428           10100 
        937.493         11598.7 
        937.542         12811.1 
        937.593         14141.3 
        937.694         16838.2 
        937.788         19415.8 
        937.794         19580.4 
        937.894         22340.1 
            938         25240.9 
        938.106         28178.5 
        938.212         31079.1 
        938.318         33904.4 
        938.424         36617.1 
         938.53         39218.7 
        938.636         41877.7 
        938.743         44437.5 
        938.784         45402.3 
        938.817         46172.3 
        938.849           46915 
        938.914         48401.9 
        938.931         48775.4 
        939.044           51283 
        939.158         54097.9 
        939.271         56916.2 
        939.498         62529.6 
        939.725         67904.3 
        939.839         70467.2 
        939.953         72942.1 
        940.066         75303.7 
         940.18         77568.7 
        940.293         79474.8 
        940.407           81186 
         940.52         82811.4 
        940.528         82915.7 
        940.634         84352.7 
         940.74         85718.7 
        940.953         88346.6 
        941.165         90796.1 
        941.377         93046.1 
        941.589         94998.9 
        941.801         96763.3 
        942.014         98327.5 
        942.226         99695.6 
        942.253         99854.9 
        942.438          100815 
        942.452          100879 
         942.65          101705 
        942.849          102325 
        943.048          102732 
        943.246          102828 
        943.445          102673 
        943.643          102287 
        943.842          101658 
         944.04          100788 
         944.24         99248.9 
        944.438         97360.8 
        944.637           95135 
        944.761         93586.2 
        944.835         92626.4 
        944.897         91794.5 
        945.034         89852.1 
         945.17         87747.8 
        945.308         85491.5 
        945.581         80743.6 
        945.718         78225.3 
        945.854         75597.7 
        945.991         73377.2 
        946.127         71189.4 
        946.264         68906.8 
        946.401         66542.7 
        946.538         64076.2 
        946.674         61509.2 
        946.736         60336.2 
        946.947         56315.2 
        947.053         54213.2 
        947.158         52052.7 
        947.263         49827.9 
        947.369         47508.1 
        947.475         45095.4 
        947.581           42567 
        947.686         39910.8 
        947.792         37125.1 
        947.897         34204.1 
        947.923         33477.8 
        948.003         31170.8 
        948.083         28811.6 
        948.243         24037.7 
        948.261         23497.7 
        948.403           19223 
        948.546         15054.4 
        948.599         13602.5 
        948.661         12013.8 
        948.688         11379.3 
        948.777         9619.15 
        948.835         8877.39 
        948.893         8573.63 
        948.922         8559.36 
        948.951         8563.04 
        948.966         8565.08 
         948.98            8567 
        948.994         8568.91 
        949.009         8570.99 
        949.023          8572.9 
        949.037         8574.82 
        949.052         8576.86 
        949.066         8578.78 
        949.095         8582.74 
        949.153         8609.25 
         949.23         9136.38 
        949.258         9514.28 
        949.269         9694.08 
         949.28         9883.58 
         949.33         10862.5 
         949.36         11545.6 
         949.43         13316.4 
          949.5         15274.7 
         949.64         19520.3 
        949.781           23907 
        949.795         24345.5 
        949.879         26990.9 
        949.921         28304.4 
        949.963         29611.5 
        950.131         34802.2 
        950.299         39757.2 
        950.467           44408 
        950.635         48768.8 
        950.719         50859.9 
        950.804         52890.9 
        950.888           54878 
        951.056           58755 
        951.224           62508 
        951.392         66201.2 
        951.728           73463 
        952.064           80296 
        952.401         88011.7 
        952.738         96004.2 
        953.075          103783 
        953.413          111209 
         953.75          118469 
        953.918          121979 
        954.087          125149 
        954.256          128023 
        954.425          130857 
        954.762          136393 
        954.859          137945 
        955.099          141645 
        955.147          142379 
        955.437          146658 
        955.725          150763 
        956.014          154309 
        956.303          157643 
        956.592          160812 
        957.169          166683 
        957.747          171901 
        958.324          176455 
        958.514          177802 
        958.901          180299 
        958.923          180424 
        959.289          182451 
        959.299          182508 
        959.676          184385 
        960.052          185920 
         960.43          187069 
        960.807          188092 
        961.183          188596 
        961.561          188606 
        961.937          188123 
        962.314          187168 
        962.691          185768 
        963.068          183906 
        963.444          181643 
        963.822          178971 
        964.099          176775 
        964.165          176212 
        964.198          175928 
        964.231          175641 
        964.363          174481 
        964.627          172045 
        965.156          166672 
        965.684          160673 
        966.213          154078 
        966.741          146945 
        967.005          143107 
        967.269          139124 
        967.534          134947 
        967.564          134459 
        967.798          130588 
        968.032          126558 
        968.266          122279 
          968.5          117804 
        968.641          115027 
        968.735          113109 
        968.805          111654 
        968.969          108176 
        969.133          104551 
        969.297          100764 
        969.324          100123 
        969.461           96779 
        969.474         96442.8 
        969.625         92598.8 
        969.775         88551.4 
        969.876         85746.9 
        969.927         84320.3 
        969.977         82869.6 
        970.077         79859.9 
        970.277         73524.3 
        970.477         66679.7 
         970.48         66571.9 
        970.677         59139.2 
        970.874         50857.7 
        971.071         41682.7 
         971.19         35752.6 
        971.269         31652.5 
        971.348           27514 
        971.427         23397.7 
        971.467         21358.7 
        971.506         19460.7 
        971.585         15964.7 
        971.644         13882.5 
        971.703         12558.4 
        971.732         12274.5 
        971.762         12200.6 
        971.778         12200.4 
        971.792         12202.9 
        971.806         12205.5 
        971.821         12208.3 
        971.827         12209.4 
        971.833         12210.5 
        971.836           12211 
        971.839         12211.6 
        971.851         12213.8 
        971.866         12216.6 
         971.88         12219.1 
         971.91         12225.7 
        971.969         12525.4 
        972.037         14054.1 
        972.087         15836.7 
        972.137           17978 
         972.15         18584.9 
        972.199         20955.9 
        972.237         22907.8 
        972.324           27488 
        972.348         28795.2 
        972.499         36634.1 
        972.649         44039.8 
        972.798         50840.4 
        972.948         57016.1 
        973.097           62616 
        973.247         67742.5 
        973.396         72510.2 
        973.545         77002.6 
        973.645         79859.9 
        973.696         81257.6 
        973.746         82633.9 
        973.846         85344.2 
        974.046         90487.6 
        974.246         95347.7 
        974.446          100085 
        974.646          104709 
        974.846          108931 
        974.853          109077 
        975.051          113185 
        975.247          117310 
        975.444          120988 
         975.64          124549 
        976.033          131598 
        976.427          138363 
         976.82          145370 
        977.213          152931 
        977.481          157826 
        977.607          160052 
        977.937          166231 
        978.393          174273 
        978.621          178556 
        978.848          183177 
        979.077          188152 
        979.305          193548 
        979.761          203857 
        980.217          213961 
        980.445          218534 
        980.673          223267 
          980.9          227031 
        981.128          230864 
        981.356          234746 
        981.585          238430 
         982.04          245936 
        982.952          259967 
        983.803          273729 
        983.863          274750 
        983.923          275776 
        984.043          277838 
        984.284          281619 
        984.764          289288 
        984.831          290279 
        985.725          303724 
        986.171          310577 
        986.395          313916 
        986.618          317276 
        986.841          320197 
        987.066          322290 
        987.289          324322 
        987.512          326295 
        987.735          328130 
        987.959          329911 
        988.182          331894 
        988.406          334727 
        988.629          337533 
         988.84          340071 
        989.076          342173 
        989.312          344218 
        989.548          345924 
        989.785          346389 
        990.258          347316 
        990.494          348349 
         990.73          349345 
        990.967          350862 
        991.204          353404 
         991.44          355924 
        991.676          359037 
        991.913          362829 
        992.149          366627 
        992.385          371173 
        992.622          376422 
