# Koester WD models
# teff = 11500 K (value for the effective temperature for the model. Temperatures are given in K)
# logg = 9.5 log(cm/s2) (value for Log(G) for the model.)
#
# column 1: WAVELENGTH (ANGSTROM), Wavelength in Angstrom
# column 2: FLUX (ERG/CM2/S/A), Flux in erg/cm2/s/A
         899.23         5513.43 
        900.522         5638.91 
        902.379         5823.32 
        904.235         6012.85 
        906.655         6267.82 
        907.948         6407.75 
         908.45         6462.82 
        909.241         6550.35 
        910.032         6638.91 
        911.193         6770.79 
        911.613         6819.05 
        911.824         6843.27 
        911.929         6855.39 
        912.034         6867.52 
        912.139         6899.97 
        912.244         6936.32 
        912.349            6976 
        912.454         7017.06 
        912.559         7059.44 
        912.664         7105.21 
         912.77         7154.79 
        912.875         7204.65 
        912.886          7209.8 
        913.085         7292.23 
        913.284         7353.15 
        913.339         7360.69 
        913.435         7373.79 
        913.483         7387.05 
        913.531         7396.79 
        913.625         7395.12 
        913.724          7382.9 
        913.822         7394.37 
        913.871         7399.99 
        914.018         7360.91 
        914.165         7293.96 
        914.312         7402.38 
        914.343         7414.32 
        914.459         7271.22 
        914.575         7181.21 
        914.692         7327.58 
        914.808         7543.28 
        914.924         7310.42 
        915.009         7152.28 
         915.04         7135.69 
        915.071         7133.14 
        915.133         7171.78 
        915.257         7551.07 
        915.381         7885.33 
        915.505         7388.15 
         915.54         7284.16 
        915.609         7170.56 
        915.617         7167.14 
         915.63          7161.2 
        915.643         7157.71 
        915.677         7156.17 
        915.813         7332.23 
        915.949         8208.76 
        916.085         8650.94 
        916.221         7699.26 
        916.285         7353.93 
        916.357         7234.99 
        916.429          7230.5 
        916.574         7397.82 
        916.718         8718.23 
        916.862         10203.1 
        917.006         9806.39 
         917.15         8032.46 
         917.21         7522.29 
        917.294          7341.4 
        917.378         7342.03 
        917.547         7572.46 
        917.715          9965.6 
        917.883         12645.6 
        918.051         13119.8 
        918.219         10871.5 
        918.387         8061.36 
        918.417         7767.37 
         918.51         7488.71 
        918.556         7488.36 
        918.602         7493.92 
        918.786          7820.4 
         918.97         11105.8 
        919.057         13307.8 
        919.154         15659.6 
        919.251         17383.1 
        919.446         18400.4 
         919.64         16188.4 
        919.834         11656.9 
        919.841         11485.6 
        920.028         8007.04 
        920.215         7699.23 
        920.403         8059.35 
         920.59         11789.5 
        920.777         17386.5 
        920.964         22484.1 
        921.151         25633.2 
        921.339         26520.1 
        921.526         25080.2 
        921.713         21121.4 
         921.77         19591.3 
          921.9         15880.8 
        921.929         15038.2 
        922.087         10641.2 
        922.246         8098.08 
        922.355         7978.83 
        922.405         7985.46 
        922.455         7992.12 
        922.555         8097.05 
        922.655         9277.31 
          922.7         10224.1 
        922.755         11622.4 
         922.81         13203.3 
         922.92         16720.7 
         923.03         20396.4 
         923.14         24289.6 
         923.25         27939.9 
        923.361         31065.8 
        923.471         33642.4 
        923.581         35539.9 
        923.691         36988.2 
        923.801         38004.2 
        923.911         38542.6 
        924.021         38634.4 
        924.131         38106.9 
        924.241         36980.3 
        924.352         35211.3 
        924.462         32793.5 
        924.572         29794.6 
        924.682         26583.2 
        924.792         22958.1 
        924.902         19279.1 
        925.012         15756.8 
        925.122         12410.2 
        925.232          9725.4 
        925.343         8440.99 
         925.36         8403.92 
        925.422         8394.68 
        925.453         8398.99 
        925.484         8403.29 
        925.608         8438.38 
        925.732         9747.26 
        925.856         12888.7 
         925.98         16859.2 
        926.104         21162.8 
        926.228         25782.1 
        926.305         28610.6 
        926.337         29770.8 
        926.353         30343.2 
        926.369         30910.4 
        926.433         33248.4 
        926.561         37828.9 
        926.689         42033.6 
        926.817         45592.4 
        926.945         48614.9 
        927.073         50810.9 
        927.201         52640.2 
         927.33         54099.5 
        927.458         55270.7 
        927.586         56082.8 
        927.714         56600.8 
        927.842         56695.1 
         927.97         56408.2 
        928.014         56212.2 
        928.098         55589.9 
        928.182         54712.1 
        928.351         52237.1 
        928.519         48683.1 
        928.687         44694.5 
        928.855         40218.7 
        928.957         37186.7 
        929.023         35115.5 
        929.089         32932.4 
        929.101         32518.9 
        929.181         29704.4 
        929.221         28246.4 
        929.261         26776.1 
        929.301         25325.6 
        929.422         20903.3 
        929.543         16712.3 
        929.559           16174 
        929.664         12884.9 
        929.769         10286.1 
        929.833         9332.79 
        929.865         9107.51 
        929.874         9076.41 
        929.883          9054.7 
         929.91         9037.11 
        929.927         9038.83 
        929.933         9039.71 
        929.939         9040.59 
        929.954         9042.82 
        929.968          9044.9 
        929.982         9046.94 
        929.996         9049.01 
         930.01         9051.09 
        930.024         9053.16 
        930.038         9055.23 
        930.052         9057.31 
        930.081         9061.58 
        930.137          9092.3 
        930.201         9547.27 
        930.247         10286.3 
        930.249         10326.2 
        930.251         10366.4 
        930.301         11507.6 
        930.326         12147.9 
        930.402         14419.9 
        930.478           16964 
         930.63         22488.2 
        930.633         22602.3 
        930.782         28416.4 
        930.931         34201.9 
         931.08         39611.7 
        931.229         44766.4 
        931.379           49792 
        931.528         54943.3 
        931.788         63764.6 
        931.814         64571.7 
        931.826         64939.2 
        931.838           65304 
        931.888         66797.5 
        931.988         69572.1 
        932.088         71841.9 
        932.188         73917.3 
        932.288         75803.2 
        932.389         77410.1 
        932.489         78850.8 
        932.589         80181.6 
        932.789           82497 
        932.989         84364.6 
        933.189         85829.3 
        933.347         86712.4 
        933.375         86842.1 
        933.377         86850.9 
        933.389           86904 
        933.403         86963.7 
        933.432         87087.1 
         933.46         87199.6 
        933.542         87471.7 
        933.652         87738.7 
        933.762         87933.2 
        933.872         87919.4 
        933.982         87587.3 
        934.092         86883.6 
        934.202         85894.9 
        934.312         84627.9 
        934.413         83225.5 
        934.422           83091 
        934.533         81282.4 
        934.652         78990.9 
        934.771         76343.8 
         934.89         73532.1 
        935.009         70485.4 
        935.026         70028.6 
        935.128         67352.9 
         935.23         64822.1 
        935.332         62107.4 
        935.434         59244.5 
        935.537         56207.2 
        935.639         53050.8 
        935.741         49863.7 
        935.746         49704.4 
        935.843         46513.2 
        935.945         42969.4 
        936.144         35719.9 
        936.343         28294.3 
        936.484         22929.9 
        936.542         20740.6 
        936.601         18590.6 
        936.605           18444 
        936.717         14611.7 
        936.829         11568.7 
        936.894         10481.6 
        936.938         10168.6 
        936.941         10159.8 
        936.944         10151.7 
        936.973         10130.5 
        936.987         10132.2 
        936.994         10133.3 
        937.001         10134.5 
        937.015         10136.8 
        937.029           10139 
        937.043         10141.3 
        937.058         10143.8 
        937.072           10146 
        937.086         10148.3 
        937.101         10150.7 
        937.115           10153 
        937.143         10157.6 
          937.2         10193.4 
        937.314         11635.7 
        937.428           14806 
        937.493           17033 
        937.542         18823.2 
        937.593         20766.6 
        937.694         24688.5 
        937.794         28641.9 
         937.95         34786.9 
        937.988           36249 
        937.994         36481.1 
            938         36719.9 
         938.05         38698.1 
         938.15         42557.6 
         938.25         46381.5 
         938.45         53566.4 
         938.65         60495.5 
        938.788         65072.4 
        938.809         65761.7 
        938.851         67131.1 
        938.914         69144.3 
        938.924         69474.4 
         939.04           73070 
        939.155           77133 
        939.271         81245.4 
        939.502         89380.8 
        939.733         97103.5 
         939.85          100801 
        939.965          104367 
        940.081          107776 
        940.196          111014 
        940.312          113657 
        940.427          116109 
        940.576          119114 
        940.658          120689 
         940.74          122205 
        940.905          125050 
        941.069          127720 
        941.233          130237 
        941.397          132551 
        941.561          134602 
        941.725          136501 
        941.889          138248 
        942.054          139831 
        942.218          141273 
        942.382          142509 
        942.546          143556 
        942.701          144379 
         942.71          144421 
        942.874          145094 
        943.048          145590 
        943.221          145772 
        943.394          145680 
        943.567          145339 
         943.74          144743 
        943.913          143884 
        944.086          142624 
         944.26          140702 
        944.433          138403 
        944.606          135749 
        944.779          132760 
        944.943          129704 
        944.952          129528 
        945.125          125937 
        945.308          121800 
         945.49          117395 
        945.672          112681 
        945.854          107692 
        946.036          103471 
        946.218           99231 
        946.401         94785.3 
        946.583         90100.2 
        946.736         86009.3 
        946.765         85251.8 
        946.947         80320.5 
        947.158         74299.9 
        947.264         71165.6 
        947.369         67910.6 
        947.476         64531.5 
        947.581         61009.4 
        947.687         57323.7 
        947.792         53447.6 
        947.898         49364.2 
        947.923         48354.5 
        948.003         45120.8 
        948.083         41792.3 
        948.243         35015.6 
        948.261         34242.1 
        948.403         28100.7 
        948.546         22037.8 
        948.599         19900.6 
        948.661         17543.4 
        948.688         16602.2 
        948.777           13929 
        948.835         12769.1 
        948.893         12261.8 
        948.922         12235.3 
        948.951         12240.2 
        948.966         12243.1 
         948.98         12245.8 
        948.994         12248.4 
        949.009         12251.3 
        949.023           12254 
        949.037         12256.6 
        949.052         12259.5 
        949.066         12262.2 
        949.095         12267.7 
        949.153         12311.5 
         949.23         13157.5 
        949.258           13759 
        949.269         14034.9 
         949.28         14322.3 
         949.33         15815.8 
         949.36         16841.9 
         949.43         19472.3 
          949.5           22352 
         949.64         28522.3 
        949.781         34820.5 
        949.795         35448.8 
        949.879         39220.6 
        949.921         41073.8 
        949.963         42921.7 
        950.131         50211.4 
        950.299         57118.6 
        950.467           63578 
        950.635         69648.2 
        950.719         72577.7 
        950.804         75429.6 
        950.888         78223.8 
        951.056         83676.9 
        951.224         88997.5 
        951.392         94185.9 
        951.728          104433 
        952.064          114169 
        952.401          125290 
        952.738          136728 
        953.075          147834 
        953.413          158484 
         953.75          169065 
        953.918          174152 
        954.087          178820 
        954.256          183101 
        954.425          187346 
        954.762          195645 
        954.859          197973 
        955.099          203564 
        955.147          204672 
        955.437          211143 
        955.725          217362 
        956.014          222706 
        956.303          227726 
        956.592          232527 
        957.169          241460 
        957.747          249393 
        958.324          256278 
        958.514          258300 
        958.901          262038 
        958.923          262226 
        959.289          265246 
        959.299          265332 
        959.676          268125 
        960.052          270393 
         960.43          272061 
        960.807          273581 
        961.183          274271 
        961.561          274177 
        961.937          273297 
        962.314          271672 
        962.691          269346 
        963.068          266290 
        963.444          262628 
        963.822          258409 
        964.099          254980 
        964.165          254107 
        964.198          253666 
        964.231          253223 
        964.363          251416 
        964.627          247652 
        965.156          239393 
        965.684          230277 
        966.213          220426 
        966.741          209748 
        967.269          198130 
        967.564          191216 
        967.798          185534 
        968.032          179629 
        968.266          173381 
          968.5          166929 
        968.641          162947 
        968.735          160192 
        968.969          153081 
        969.133          147890 
        969.297          142472 
        969.324          141555 
        969.461          136810 
        969.474          136333 
        969.625          130901 
        969.775          125161 
        969.876          121204 
        969.927          119186 
        969.977          117145 
        970.077          112954 
        970.277          104048 
        970.477         94464.2 
         970.48         94314.7 
        970.677         84001.8 
        970.874         72575.8 
        971.071         59858.3 
         971.19         51539.7 
        971.269         45725.3 
        971.348         39829.1 
        971.427         33909.7 
        971.467         30967.8 
        971.506         28199.6 
        971.585         23069.5 
        971.644           19938 
        971.703         17886.7 
        971.732         17429.1 
        971.762         17296.1 
        971.778           17294 
        971.792         17297.5 
        971.806         17301.1 
        971.821         17304.9 
        971.827         17306.4 
        971.833           17308 
        971.836         17308.7 
        971.839         17309.5 
        971.851         17312.6 
        971.866         17316.4 
         971.88         17319.9 
         971.91         17329.5 
        971.969         17830.2 
        972.037         20186.6 
        972.087         22872.3 
        972.137         26032.4 
         972.15         26916.9 
        972.237         33192.8 
        972.324         39788.6 
        972.499         52779.4 
        972.548         56277.5 
        972.673         64739.7 
        972.798           72546 
        972.923         79729.2 
        973.048         86334.7 
        973.173         92476.9 
        973.298         98224.7 
        973.423          103692 
        973.548          108926 
        973.601          111053 
        973.673          113907 
        973.746          116715 
         973.89          122127 
        974.034          127286 
        974.178          132237 
        974.466          141892 
        974.754          150987 
        975.043          159573 
        975.187          163863 
        975.331          168018 
        975.475          171767 
        975.556          173860 
        975.598          174944 
        975.619          175486 
         975.64          176027 
        975.724          178195 
        975.892          182540 
        976.228          190867 
        976.565          199293 
        976.901          208118 
        977.187          216147 
        977.237          217623 
        977.574          226436 
        977.717          230229 
        978.246          244198 
        978.511          251283 
        978.775          258882 
        979.041          267152 
        979.305          276309 
        979.834          294215 
        980.098          303084 
        980.364          310750 
        980.628          318916 
        980.893          325610 
        981.422          338890 
        981.952          351814 
        982.481          363960 
        983.157          379460 
         983.54          388571 
        983.923          398099 
         984.69          416349 
        985.456          433345 
        985.828          441862 
        986.223          450800 
        986.618          459508 
        987.014          466143 
        987.087          467127 
        987.409          471368 
        987.643          474233 
        987.921          477472 
        988.199          481103 
        988.478          486268 
        988.756          491392 
        989.034          495351 
        989.312          498919 
         989.59          501562 
        989.869          502262 
        990.425          504348 
        990.703          506048 
