# Koester WD models
# teff = 12750 K (value for the effective temperature for the model. Temperatures are given in K)
# logg = 9.25 log(cm/s2) (value for Log(G) for the model.)
#
# column 1: WAVELENGTH (ANGSTROM), Wavelength in Angstrom
# column 2: FLUX (ERG/CM2/S/A), Flux in erg/cm2/s/A
         899.23           29790 
        901.469           30815 
        902.853         31462.4 
        904.235         32121.5 
        904.762         32375.4 
        907.001           33474 
         908.45         34200.6 
        909.241         34603.1 
        910.032         35009.3 
        911.193         35612.5 
        911.613         35832.4 
        911.824         35942.3 
        911.929         35997.3 
        912.034           36052 
        912.139         36425.8 
        912.244         36811.6 
        912.349         37215.3 
        912.454         37653.2 
        912.559         38103.4 
        912.664         38563.4 
         912.77         39028.9 
        912.875         39492.3 
        912.886         39540.1 
        913.085         40303.5 
        913.284         40900.4 
        913.339         40983.3 
        913.435         41140.1 
        913.483         41270.8 
        913.531         41351.5 
        913.625         41313.8 
        913.724         41255.7 
        913.822         41401.8 
        913.871           41388 
        914.018         40804.3 
        914.165         40349.7 
        914.343         40841.6 
        914.459         39374.2 
        914.575         38322.7 
        914.692         39845.1 
        914.808         41386.7 
        914.924         38843.3 
        915.009         36858.7 
         915.04         36540.5 
        915.071         36452.8 
        915.133         37016.4 
        915.257         41115.9 
        915.381         43842.2 
        915.505         38810.6 
        915.609         35808.2 
        915.617           35724 
         915.63         35575.7 
        915.643           35472 
        915.677         35367.4 
        915.745         35930.1 
        915.881         41980.2 
        916.017         49679.9 
        916.153         46048.2 
        916.289         37345.7 
        916.379         35214.7 
        916.421         35032.5 
        916.425         35031.9 
        916.429         35032.8 
        916.479         35275.4 
         916.58         38096.5 
         916.68         46201.2 
         916.78         55947.1 
         916.88         60881.2 
         916.98           59055 
         917.08         51035.2 
         917.18         41151.4 
        917.182         40972.7 
         917.28         35832.7 
        917.378           35189 
        917.575           41459 
        917.771         65459.5 
        917.967         79354.7 
        918.163         70450.2 
        918.359         46504.4 
         918.51         36029.7 
        918.556         35734.4 
        918.602         35724.3 
        918.694         36131.1 
        918.878         51667.3 
        919.062         80174.7 
        919.201         97784.3 
        919.241          101382 
        919.246          101785 
        919.251          102178 
        919.301          105199 
        919.402          107507 
        919.502          105542 
        919.602         98656.1 
        919.702         87814.4 
        919.802         73299.6 
        919.902           58154 
        920.002         44486.2 
        920.102         37037.8 
        920.163         36562.8 
        920.189         36565.6 
        920.202         36571.9 
        920.215         36578.8 
        920.267         36620.3 
        920.372         39278.4 
        920.476         50930.9 
         920.58         67187.4 
        920.684         85425.6 
        920.788          102224 
        920.892          117537 
        920.996          129289 
          921.1          137627 
        921.204          142397 
        921.308          144228 
        921.413          142982 
        921.517          138448 
        921.621          130295 
        921.725          118239 
        921.829          103551 
        921.933         87463.2 
        922.037         69595.1 
        922.141         52840.3 
        922.245         40528.7 
        922.294         38042.8 
         922.35         37768.5 
        922.405         37796.8 
        922.515         38168.5 
        922.625         47293.5 
         922.66           52125 
        922.735         64256.6 
         922.81         77578.5 
         922.96          104479 
         923.11          130398 
         923.26          152885 
        923.411          170483 
        923.561          183161 
        923.711          191792 
        923.861          196705 
        924.011          197910 
        924.161          194783 
        924.312          186879 
        924.462          173885 
        924.612          156182 
        924.762          135165 
        924.912          110130 
        925.062         83672.6 
        925.212         56898.6 
        925.241         52227.4 
        925.363         40020.1 
        925.484         39569.6 
        925.605         40164.3 
        925.726         52600.9 
        925.847         73733.5 
        925.968         96664.6 
        926.089          118817 
         926.21          140583 
         926.22          142302 
        926.295          154580 
        926.332          160475 
        926.369          166246 
        926.517          189051 
        926.665          209575 
        926.813          226819 
        926.961          241062 
        927.109          251638 
        927.257          260205 
        927.406          266917 
        927.554          271595 
        927.702          274467 
        927.814          275187 
         927.85          275183 
        927.998          273834 
        928.182          267377 
        928.367          255679 
        928.551          238428 
        928.735          219160 
        928.749          217533 
        928.919          197912 
        929.089          175527 
        929.211          156912 
        929.257          149405 
        929.259          149070 
        929.261          148736 
        929.312          140180 
        929.412          122234 
        929.419          120929 
        929.481          109565 
        929.512          103781 
        929.543         97909.3 
        929.565         93672.9 
        929.667         73948.7 
        929.769         55784.9 
        929.833         46850.9 
        929.859         44389.4 
        929.871         43554.7 
        929.883         42963.2 
         929.91         42322.3 
        929.927         42256.6 
        929.933         42255.4 
        929.939         42256.6 
        929.954         42265.4 
        929.968         42274.2 
        929.982           42283 
        929.996         42291.5 
         930.01         42300.3 
        930.024         42309.1 
        930.038         42317.6 
        930.052         42326.4 
        930.081         42344.6 
        930.137         43123.4 
        930.201         48789.6 
        930.247         55501.9 
        930.249         55836.2 
        930.251         56172.6 
        930.301         64943.6 
        930.326         69375.5 
        930.402         84139.4 
        930.478         99205.8 
         930.63          128385 
        930.633          128958 
        930.782          156200 
        930.931          181026 
         931.08          203355 
        931.229          224432 
        931.379          245798 
        931.516          265927 
        931.677          289220 
        931.838          310426 
        931.999          329066 
         932.16          343175 
        932.321          355452 
        932.483          365505 
        932.644          374406 
        932.805          381974 
        932.966          388238 
        933.127          393415 
        933.173          394691 
        933.265          396990 
        933.288          397509 
        933.403          399761 
        933.432          400204 
        933.542          401568 
        933.652          402344 
        933.762          402567 
        933.872          402102 
        933.982          400446 
        934.092          397371 
        934.202          393265 
        934.312          388072 
        934.413          382388 
        934.422          381845 
        934.533          374625 
        934.652          365483 
        934.771          354994 
         934.89          343502 
        935.009          330810 
        935.026          328912 
        935.128          318014 
         935.23          307874 
        935.332          297209 
        935.434          285934 
        935.537          273833 
        935.639          261055 
        935.741          248084 
        935.746          247435 
        935.843          234406 
        935.945          219889 
        936.144          189684 
        936.343          156986 
        936.484          130895 
        936.542          119515 
        936.601          107757 
        936.605          106937 
        936.717           83747 
        936.829         62181.5 
        936.894           52136 
        936.938         47925.9 
        936.941         47775.5 
        936.944         47630.6 
        936.973         46864.1 
        936.987         46817.9 
        936.994         46818.8 
        937.001         46822.6 
        937.015           46832 
        937.029         46841.5 
        937.043         46850.9 
        937.058         46861.3 
        937.072         46870.7 
        937.086         46880.1 
        937.101         46890.2 
        937.115         46899.6 
        937.143         46918.7 
          937.2         47806.2 
        937.314         62424.1 
        937.428         84777.8 
        937.493         98515.9 
        937.542          108924 
        937.593          119579 
        937.694          139731 
        937.794          158737 
        937.894          176539 
         937.95          186005 
        937.988          192336 
        937.994          193340 
            938          194360 
         938.05          202679 
         938.15          218768 
         938.25          234503 
         938.45          264030 
         938.65          292375 
        938.788          310882 
        938.809          313670 
        938.851          319224 
        938.914          327445 
        938.924          328802 
         939.04          343401 
        939.155          360501 
        939.271          377717 
        939.387          394499 
        939.502          411077 
        939.618          426889 
        939.733          442072 
        939.965          471578 
        940.081          485448 
        940.196          498753 
        940.312          509956 
        940.427          520468 
        940.576          533411 
        940.658          540241 
         940.74          546879 
        940.905          560168 
        941.069          572719 
        941.233          584537 
        941.397          595260 
        941.561          604471 
        941.725          613003 
        941.889          620832 
        942.054          627970 
        942.218          634473 
        942.382          639952 
        942.546          644532 
        942.701          648082 
         942.71          648261 
        942.874          651098 
        943.048          653090 
        943.221          655509 
        943.394          656370 
        943.567          655741 
         943.74          653590 
        943.913          649920 
        944.086          644366 
         944.26          635971 
        944.433          625783 
        944.606          613801 
        944.779          600289 
        944.943          587085 
        944.952          586319 
        945.125          570686 
        945.308          552600 
         945.49          533251 
        945.672          512733 
        945.854          490896 
        946.036          472511 
        946.218          454227 
        946.401          435462 
        946.583          416098 
        946.736          399168 
        946.765          395988 
        946.947          375593 
        947.158          350702 
        947.264          337897 
        947.369          324646 
        947.476          310838 
        947.581          296486 
        947.687          281577 
        947.792          265921 
        947.898          249384 
        947.923          245277 
        948.003          232116 
        948.083          218350 
        948.243          189257 
        948.261          185812 
        948.403          156811 
        948.546          125250 
        948.599          112926 
        948.661         98530.1 
        948.688         92422.8 
        948.777           73376 
        948.835         62940.9 
        948.893         56438.7 
        948.922         55515.1 
        948.951         55473.9 
        948.966         55485.6 
         948.98         55496.2 
        948.994         55507.2 
        949.009         55518.9 
        949.023         55529.8 
        949.037         55540.5 
        949.052         55552.2 
        949.066         55563.2 
        949.095         55585.8 
        949.153         56644.2 
         949.23         66324.7 
        949.258         71606.9 
        949.269         73870.5 
         949.28         76194.3 
         949.33         86957.1 
         949.36         93709.9 
         949.43          110155 
          949.5          126818 
         949.64          158869 
        949.781          188618 
        949.795          191421 
        949.879          207851 
        949.921          215694 
        949.963          223534 
        950.131          253426 
        950.299          281408 
        950.467          307442 
        950.635          332148 
        950.719          344042 
        950.804          355613 
        950.888          366979 
        951.056          389394 
        951.224          411134 
        951.392          432563 
        951.728          474566 
        951.896          495316 
        952.065          515824 
        952.233          538177 
        952.401          563193 
        952.688          604785 
        952.737          611872 
        952.788          619220 
        952.888          633480 
        953.089          661274 
        953.489          717147 
        953.689          745657 
        953.889          773881 
        954.089          800657 
         954.29          825739 
         954.69          875370 
        954.967          908150 
         955.09          922079 
        955.229          937511 
        955.491          965638 
        955.752          992577 
        956.014      1.01528e+6 
        956.275      1.03751e+6 
        956.537      1.05878e+6 
        957.061      1.09856e+6 
        957.584      1.13404e+6 
        958.108      1.16527e+6 
        958.631      1.19222e+6 
        959.021      1.20919e+6 
        959.155      1.21444e+6 
        959.289       1.2194e+6 
        959.557      1.22853e+6 
        959.757      1.23445e+6 
        960.093      1.24291e+6 
         960.43        1.249e+6 
        960.766      1.25751e+6 
        961.102      1.26208e+6 
        961.439      1.26298e+6 
        961.775      1.26017e+6 
        962.111      1.25402e+6 
        962.447      1.24449e+6 
        962.784      1.23207e+6 
         963.12       1.2165e+6 
        963.456      1.19848e+6 
        963.793      1.17808e+6 
        964.027      1.16278e+6 
        964.129      1.15573e+6 
        964.231      1.14842e+6 
        964.435      1.13341e+6 
        964.843      1.10134e+6 
        965.252      1.06699e+6 
         965.66      1.03037e+6 
        966.068          992344 
        966.477          952741 
        966.555          945104 
        966.885          911684 
        966.924          907628 
        967.293          868895 
        967.663          828727 
        968.032          787258 
        968.244          762194 
        968.401          743247 
        968.507          730288 
        968.771          697459 
        969.034          663291 
        969.297          627470 
         969.56          589661 
         969.72          565424 
        969.823          549198 
        969.927          532541 
         970.03          515400 
        970.133          497788 
        970.236          479454 
        970.339          460451 
        970.442          440913 
        970.545          420502 
        970.628          403362 
        970.648          399058 
        970.751          376366 
        970.874          347957 
        970.997          317621 
         971.12          284529 
         971.14          279080 
        971.244          247587 
        971.348          212484 
        971.452          174023 
        971.469          167458 
        971.527          144639 
        971.556          133177 
        971.585          122002 
        971.653         97776.4 
        971.699           84796 
        971.701         84317.5 
        971.703           83845 
        971.732         78574.1 
        971.744         77204.6 
        971.753         76469.5 
        971.762         76020.6 
        971.778         75688.5 
        971.792         75662.7 
        971.806         75676.6 
        971.821         75691.6 
        971.827         75697.6 
        971.833         75703.6 
        971.836         75706.4 
        971.839         75709.6 
        971.851         75721.5 
        971.866         75736.6 
         971.88         75750.7 
         971.91         75969.1 
        971.969         82855.1 
        972.037          102278 
        972.087          120453 
        972.137          140080 
         972.15          145274 
        972.237          179723 
        972.324          212249 
        972.499          269851 
        972.548          284138 
        972.673          317967 
        972.798          348472 
        972.923          376463 
        973.048          402331 
        973.173          426559 
        973.298          449194 
        973.351          458446 
        973.423          470673 
        973.548          491298 
        973.746          522145 
        973.943          551434 
         974.14          578930 
        974.337          605599 
        974.534          631869 
        974.731          656869 
        974.928          680736 
        975.126          704797 
          975.4          736826 
         975.52          749757 
         975.64          762669 
         975.88          788672 
        976.361          839361 
        976.601          865279 
        976.841          892347 
        977.081          921040 
        977.321          951255 
        977.802      1.00683e+6 
        978.282      1.06374e+6 
        978.522      1.09315e+6 
        978.762      1.12507e+6 
        979.003      1.16012e+6 
        979.181      1.18843e+6 
        979.243      1.19885e+6 
        979.305      1.20964e+6 
        979.429      1.22858e+6 
        979.553      1.24838e+6 
        979.801       1.2911e+6 
        979.925      1.31436e+6 
        980.049       1.3344e+6 
        980.173      1.35195e+6 
        980.298      1.37031e+6 
        980.422      1.38926e+6 
        980.546      1.40891e+6 
        980.794      1.44445e+6 
        981.042      1.47724e+6 
        981.139       1.4905e+6 
        981.539      1.54381e+6 
        981.835      1.58353e+6 
        982.531      1.67557e+6 
         982.88      1.72243e+6 
        983.227       1.7715e+6 
        983.575      1.82471e+6 
        983.923      1.88004e+6 
         984.62      1.98727e+6 
