# Koester WD models
# teff = 12000 K (value for the effective temperature for the model. Temperatures are given in K)
# logg = 9 log(cm/s2) (value for Log(G) for the model.)
#
# column 1: WAVELENGTH (ANGSTROM), Wavelength in Angstrom
# column 2: FLUX (ERG/CM2/S/A), Flux in erg/cm2/s/A
         899.23         9661.53 
        899.266         9667.28 
         901.75         10076.2 
        904.235         10499.6 
         906.72         10938.1 
        909.099         11372.2 
         909.17         11385.4 
        909.205           11392 
        909.241         11398.6 
        909.304         11410.3 
        909.383         11425.1 
        909.485         11444.1 
        909.667         11478.2 
        910.032         11546.4 
        910.759           11684 
        910.783         11688.5 
        911.408         11807.7 
        911.721         11867.7 
        911.878         11897.7 
        912.034         11927.7 
         912.19         12054.9 
        912.346           12192 
        912.502         12351.9 
        912.658         12528.3 
        912.816         12713.6 
        912.972           12895 
        913.128         13010.7 
        913.234         13042.2 
        913.284         13058.2 
        913.334         13050.1 
        913.337         13049.6 
        913.434         13015.7 
        913.531         13034.7 
        913.629         13036.2 
        913.726         12925.5 
        913.822         12859.9 
        913.863         12899.1 
        914.014         12942.6 
        914.165         12526.3 
        914.316         13112.6 
        914.359         13209.1 
        914.467         12600.7 
        914.575         12301.1 
        914.684         12703.8 
        914.792           13711 
          914.9         13108.5 
        914.945         12636.9 
        915.008           12304 
        915.071         12238.9 
        915.197         12739.1 
        915.323           14691 
        915.449         14221.7 
        915.508           13147 
        915.576         12461.8 
        915.609           12337 
        915.643         12295.6 
        915.677         12292.1 
        915.745         12366.3 
        915.881         14158.8 
        916.017         17255.3 
        916.153         15927.8 
        916.289         12860.4 
        916.379         12421.9 
        916.421         12419.2 
        916.425         12419.9 
        916.429         12420.7 
        916.479         12442.3 
         916.58         13085.7 
         916.68         15876.2 
         916.78           19704 
         916.88         21826.6 
         916.98         21140.3 
         917.08         17840.5 
         917.18         14225.5 
        917.182         14163.7 
         917.28         12662.7 
        917.378         12609.1 
        917.575         14320.6 
        917.771         23724.8 
        917.967         29592.1 
        918.163         25835.3 
        918.359         16242.1 
         918.51         12869.8 
        918.556           12852 
        918.602         12861.1 
        918.694         12908.4 
        918.878         18146.2 
        919.062         29934.1 
        919.201         37680.6 
        919.241         39239.4 
        919.246         39412.5 
        919.251         39581.2 
        919.301         40858.6 
        919.402           41858 
        919.502         40971.7 
        919.602           38072 
        919.702         33285.5 
        919.802         27081.9 
        919.902         20813.6 
        920.002         15623.2 
        920.102         13258.1 
        920.163           13190 
        920.189         13195.5 
        920.202         13198.3 
        920.215           13201 
        920.267         13212.2 
        920.372           13883 
        920.476         17989.8 
         920.58         24588.5 
        920.684         32216.7 
        920.788         39745.2 
        920.892         46493.4 
        920.996         51869.6 
          921.1         55703.6 
        921.204         57973.4 
        921.308         58914.9 
        921.413         58313.6 
        921.517         56144.3 
        921.621           52224 
        921.725         46468.2 
        921.829         40070.1 
        921.933         32959.4 
        922.037         25435.7 
        922.141         18716.6 
        922.245         14387.3 
        922.294         13700.9 
         922.35         13662.3 
        922.405         13674.3 
        922.515         13749.4 
        922.625         16674.3 
         922.66         18441.7 
        922.735         23201.6 
         922.81         28719.8 
         922.96         40403.7 
         923.11         52012.8 
         923.26         62968.2 
        923.411         71509.6 
        923.561         77522.6 
        923.711         81562.3 
        923.861         83984.2 
        924.011         84532.1 
        924.161         82882.1 
        924.312         78867.5 
        924.462         72337.1 
        924.612         63848.2 
        924.762         53797.6 
        924.912         42585.5 
        924.941           40426 
        925.062         31114.3 
        925.076         29977.6 
        925.212         20246.7 
        925.348         14615.5 
        925.484         14364.1 
         925.62         14678.7 
        925.755         20420.6 
        925.891         30382.9 
        926.026         41251.3 
        926.162         52096.1 
        926.226         57396.6 
        926.298         62986.4 
        926.369         68272.5 
        926.511         78922.5 
        926.653         88843.9 
        926.795           97352 
        926.937          104463 
        927.079          109487 
        927.221          113533 
        927.364          116644 
        927.506          118965 
        927.648          120453 
        927.682          120702 
         927.79          120989 
        927.807          120981 
        927.932          120484 
        928.057          119076 
        928.182          116454 
        928.308          112699 
        928.433          107860 
        928.558          101872 
        928.683         96058.3 
        928.777         91125.7 
        928.808         89474.8 
        928.933         82217.1 
        929.089         72154.5 
        929.197         64327.3 
        929.229         61886.5 
        929.245         60649.7 
        929.261         59394.6 
        929.326         54291.4 
        929.365         51167.4 
        929.454         44027.5 
        929.543         36808.2 
        929.673         26420.8 
        929.721         22950.2 
        929.769         19848.3 
        929.833         16775.7 
        929.847         16316.9 
        929.865         15859.3 
        929.883         15580.8 
         929.91         15418.8 
        929.927         15411.5 
        929.933         15412.5 
        929.939         15413.9 
        929.954         15417.6 
        929.968           15421 
        929.982         15424.4 
        929.996         15427.8 
         930.01         15431.2 
        930.024         15434.6 
        930.038           15438 
        930.052         15441.4 
        930.081         15448.5 
        930.137         15643.2 
        930.201         17428.3 
        930.247         19761.4 
        930.249         19878.8 
        930.251         19996.9 
        930.301         23290.4 
        930.326           25025 
        930.329         25248.3 
        930.402           30992 
        930.478         37328.1 
         930.48         37453.4 
         930.63         50013.5 
        930.781         62591.5 
        930.931         74483.4 
        931.081         85313.7 
        931.232         95485.9 
        931.383          105303 
        931.534          115425 
        931.788          132395 
        931.832          135109 
        931.835          135292 
        931.838          135474 
        931.888          138459 
        931.988          144029 
        932.088          148592 
        932.188          152742 
        932.288          156481 
        932.389          159652 
        932.489          162436 
        932.589          164992 
        932.789          169426 
        932.989          172992 
        933.189          175773 
        933.347          177412 
        933.375          177648 
        933.377          177665 
        933.389          177760 
        933.403          177869 
        933.432          178060 
         933.46          178229 
        933.542          178617 
        933.652          178890 
        933.762          178911 
        933.872          178590 
        933.982          177697 
        934.092          176121 
        934.202          174040 
        934.312          171446 
        934.413          168612 
        934.422          168342 
        934.533          164747 
        934.652          160225 
        934.771          155147 
         934.89          149802 
        935.009          144026 
        935.026          143157 
        935.128          138114 
         935.23          133280 
        935.332          128191 
        935.434          122754 
        935.537          117005 
        935.639          110981 
        935.741          104946 
        935.843         98520.3 
        935.945           91704 
         935.95         91358.8 
        936.047         84590.8 
        936.144         77556.8 
        936.338         62814.9 
        936.464         52395.5 
        936.532         46570.7 
        936.601         40613.9 
        936.645         36754.1 
        936.714         30850.1 
        936.737         28977.5 
        936.829         22223.5 
        936.887         19079.2 
        936.944         17405.6 
        936.973         17209.5 
        937.001         17209.7 
        937.015         17213.4 
        937.029         17217.2 
        937.043         17220.9 
        937.058         17224.9 
        937.072         17228.7 
        937.086         17232.4 
        937.101         17236.4 
        937.115         17240.1 
        937.143         17247.6 
          937.2         17474.7 
        937.314         22323.2 
        937.428         31010.8 
        937.493         36680.9 
        937.542         41082.3 
        937.593         45688.5 
        937.694         54540.9 
        937.794         63127.8 
        937.894         71349.7 
         937.95         75770.2 
        937.988           78678 
        937.994         79136.4 
            938         79606.4 
         938.05         83490.3 
         938.15         91010.7 
         938.25         98380.2 
         938.45          112144 
         938.65          125257 
        938.788          133919 
        938.809          135210 
        938.851          137763 
        938.914          141554 
        938.924          142179 
         939.04          148926 
        939.155          156486 
        939.271          164105 
        939.502          179398 
        939.733          194234 
        939.965          208331 
        940.081          215035 
        940.196          221462 
        940.312          226778 
        940.427          231700 
        940.576          237716 
        940.658          240855 
         940.74          243897 
        940.905          249832 
        941.069          255426 
        941.233          260659 
        941.397          265479 
        941.561          269783 
        941.725          273746 
        941.889          277367 
        942.054          280653 
        942.218          283631 
        942.382          286177 
        942.546          288315 
        942.701          289966 
         942.71          290051 
        942.874          291372 
        943.048          292313 
        943.221          293619 
        943.394          294067 
        943.567          293754 
         943.74          292706 
        943.913          290958 
        944.086          288243 
         944.26          283958 
        944.433          278861 
        944.606          273023 
        944.779          266479 
        944.943          259879 
        944.952          259500 
        945.125          251866 
        945.308          243074 
         945.49          233977 
        945.672          224516 
        945.854          214707 
        946.036          206598 
        946.218          198480 
        946.401          190032 
        946.583          181191 
        946.736          173468 
        946.765          172053 
        946.947          162819 
        947.158          151659 
        947.264          145825 
        947.369          139758 
        947.476          133412 
        947.581          126822 
        947.687          119824 
        947.792          112473 
        947.898          104676 
        947.923          102722 
        948.003         96472.3 
        948.083         89960.8 
        948.243           76297 
        948.261         74689.8 
        948.403         61460.9 
        948.546         47566.9 
        948.599         42310.7 
        948.661         36337.5 
        948.688         33852.5 
        948.777         26492.5 
        948.835         22895.9 
        948.893         20884.9 
        948.922         20645.9 
        948.951         20647.7 
        948.966         20652.3 
         948.98         20656.7 
        948.994           20661 
        949.009         20665.7 
        949.023           20670 
        949.037         20674.4 
        949.052           20679 
        949.066         20683.4 
        949.095         20692.4 
        949.153         20966.5 
         949.23         24090.2 
        949.258         25888.2 
        949.269         26685.1 
         949.28         27527.5 
         949.33         31652.8 
         949.36         34366.5 
         949.43           41115 
          949.5         48208.4 
         949.64         62319.8 
        949.781         75875.7 
        949.795         77182.6 
        949.879         84883.9 
        949.921         88600.5 
        949.963         92255.1 
        950.131          106428 
        950.299          119625 
        950.467          131856 
        950.635          143255 
        950.719          148700 
        950.804          154026 
        950.888          159216 
        951.056          169317 
        951.224          179222 
        951.392          188957 
        951.728          208225 
        952.064          226559 
        952.401          247786 
        952.738          270216 
        953.075          292382 
        953.413          313885 
         953.75          335554 
        953.918          346226 
        954.087          356027 
        954.256          365059 
        954.425          374085 
        954.762          392127 
        954.859          397264 
        955.147          412152 
        955.437          426880 
        955.725          441309 
        956.014          453872 
        956.303          465597 
        956.592          476878 
        957.169          497920 
        957.458          507637 
        957.747          516739 
        958.036          525177 
        958.324          532908 
        958.514          537589 
        958.613          539886 
        958.901          546062 
        959.289          553015 
        959.676          558076 
        959.697          558302 
        960.063          561641 
         960.43          563492 
        960.796          564108 
        961.162          563165 
        961.529          560740 
        961.895          556825 
        962.261          551551 
        962.628          544997 
        962.994          537168 
        963.222          531724 
         963.36          528262 
        963.727          518344 
        964.231          503274 
        964.735          486711 
         965.24          468914 
        965.744          449867 
        966.249          429672 
        966.753          408567 
        967.257          386136 
        967.492          375314 
        967.762          362574 
        968.032          349373 
        968.302          335481 
        968.572          320948 
        968.843          305829 
        968.929          300843 
        969.113          289972 
        969.297          278632 
        969.404          271793 
        969.481          266752 
        969.534          263210 
        969.665          254352 
        969.795          245129 
        969.927          235593 
        970.058          225630 
        970.188          215161 
        970.319          204312 
        970.449          192899 
        970.546          183997 
         970.58          180793 
         970.71          167779 
        970.874          149919 
        971.038          130123 
        971.057          127653 
        971.203          107658 
        971.348         85190.6 
        971.401         76478.6 
        971.467         65311.5 
        971.493         60870.9 
        971.585         45651.7 
        971.644         37261.5 
        971.703         31240.5 
        971.732           29574 
        971.762         28884.1 
        971.778           28822 
        971.792         28822.8 
        971.806         28828.5 
        971.821         28834.7 
        971.827         28837.1 
        971.833         28839.6 
        971.836         28840.8 
        971.839         28842.1 
        971.851           28847 
        971.866         28853.1 
         971.88         28858.9 
         971.91         28904.9 
        971.969         30935.1 
        972.037         37844.3 
        972.087         45013.1 
        972.137         53118.4 
         972.15         55335.7 
        972.237         70365.7 
        972.324         85016.8 
        972.499          112019 
        972.548          118921 
        972.673          135254 
        972.798          150015 
        972.923          163390 
        973.048          175680 
        973.173          186975 
        973.298          197514 
        973.423          207550 
        973.548          217043 
        973.601          220944 
        973.673          226152 
        973.746          231291 
         973.89          241286 
        974.034          250782 
        974.178          259874 
        974.466          277650 
        974.754          294546 
        975.043          310500 
        975.187          318488 
        975.331          326261 
        975.475          333304 
        975.556          337237 
        975.598          339273 
        975.619          340294 
         975.64          341315 
        975.724          345409 
        975.892          353662 
        976.228          369552 
        976.565          385483 
        976.901          402309 
        977.187          417656 
        977.237          420483 
        977.574          437542 
        977.717          444937 
        978.246          472461 
        978.511          486516 
        978.775          501835 
        979.041          518712 
        979.305          537448 
        979.834          574487 
        980.098          593139 
        980.364          609368 
        980.496          617901 
        980.628          626760 
        980.761          634068 
        980.893          641004 
        981.157          655173 
        981.687          683218 
        982.745          737489 
        983.686          788254 
        983.804          795147 
        983.923          802168 
         984.16          815919 
        984.635          842949 
        985.584          894616 
        986.446          944325 
        986.532          949276 
        986.618          954227 
         986.79          963435 
        986.963          969282 
