# Koester WD models
# teff = 12000 K (value for the effective temperature for the model. Temperatures are given in K)
# logg = 9.5 log(cm/s2) (value for Log(G) for the model.)
#
# column 1: WAVELENGTH (ANGSTROM), Wavelength in Angstrom
# column 2: FLUX (ERG/CM2/S/A), Flux in erg/cm2/s/A
         899.23         11691.1 
        900.438         11925.3 
        902.337         12301.2 
        904.235           12687 
        906.823         13229.5 
        908.032         13489.5 
         908.45         13580.4 
        909.241         13753.8 
        910.032           13929 
        911.193         14189.6 
        911.613         14284.8 
        911.824         14332.5 
        911.929         14356.4 
        912.034         14380.3 
        912.139         14475.6 
        912.244         14574.2 
        912.349         14675.7 
        912.454         14780.2 
        912.559         14887.5 
        912.664         14997.5 
         912.77         15120.2 
        912.875         15242.7 
        912.886         15255.4 
        913.085         15463.6 
        913.284         15636.6 
        913.339         15665.5 
        913.435           15720 
        913.483         15758.8 
        913.531         15783.6 
        913.625         15786.2 
        913.724         15791.2 
        913.822         15844.5 
        913.871         15842.5 
        914.018           15706 
        914.165         15646.1 
        914.312         15733.6 
        914.343         15728.3 
        914.459         15419.3 
        914.575         15231.9 
        914.692         15549.6 
        914.808         15887.6 
        914.924           15329 
        915.009         14933.4 
         915.04         14875.4 
        915.071         14862.3 
        915.133           14984 
        915.257         15874.8 
        915.381         16550.8 
        915.505         15364.7 
        915.609         14786.8 
        915.617         14772.7 
         915.63         14747.3 
        915.643         14729.6 
        915.677         14715.3 
        915.745         14830.3 
        915.881         16147.2 
        916.017         18195.9 
        916.153         17210.1 
        916.289         15148.3 
        916.379         14777.6 
        916.421         14759.6 
        916.425         14760.1 
        916.429         14760.9 
        916.479         14802.7 
         916.58         15336.3 
         916.68         17307.4 
         916.78         20113.7 
         916.88         21630.2 
         916.98         21091.2 
         917.08         18702.3 
         917.18         16072.1 
        917.182         16028.9 
         917.28         14999.9 
        917.378         14930.4 
        917.575         16190.4 
        917.771         23167.8 
        917.967         27846.4 
        918.163         24848.8 
        918.359         17578.8 
         918.51         15227.1 
        918.556         15203.4 
        918.602         15211.4 
        918.694         15272.3 
        918.878           19047 
        919.062         28215.5 
        919.201           34621 
        919.241         35975.9 
        919.246         36125.8 
        919.251         36271.6 
        919.301         37396.3 
        919.402         38275.9 
        919.502         37526.3 
        919.602           34959 
        919.702         30971.8 
        919.802         25906.9 
        919.902         21078.4 
        920.002           17211 
        920.102         15634.2 
        920.163         15595.2 
        920.189         15600.9 
        920.202         15604.1 
        920.215         15607.3 
        920.267         15621.2 
        920.372         16058.3 
        920.476         18981.4 
         920.58         23968.1 
        920.684         30143.1 
        920.788         36348.9 
        920.892         42197.6 
        920.996         46959.9 
          921.1         50415.3 
        921.204           52414 
        921.308         53201.6 
        921.413         52677.6 
        921.517         50789.2 
        921.621         47417.6 
        921.725         42513.3 
        921.829         36893.9 
        921.933         30925.2 
        922.037           24839 
        922.086         22279.5 
        922.141           19688 
        922.245         16574.4 
        922.405         16160.4 
        922.564         16658.8 
        922.636           18601 
        922.723         22548.2 
         922.81         27506.5 
        922.984         38799.3 
        923.158         50667.3 
        923.333         60784.8 
        923.507         68286.9 
        923.681         73197.5 
        923.855         75935.4 
        924.029         76517.3 
        924.203         74442.2 
        924.378         69451.8 
        924.552         61430.4 
        924.726         51614.8 
          924.9         40176.9 
        925.074         28924.7 
        925.248         19539.9 
        925.362         16988.9 
        925.423         16949.9 
        925.484         16966.2 
        925.606         17054.3 
        925.728         20056.7 
         925.85         26597.3 
        925.972         34640.5 
        926.094         43131.2 
        926.216         52019.1 
        926.248         54323.5 
        926.309         58530.1 
        926.339         60603.8 
        926.369         62621.1 
        926.489         70898.5 
        926.609         78664.2 
        926.729         85487.1 
        926.849         91459.6 
        926.969         96399.5 
        927.089          100210 
        927.209          103460 
         927.33          106143 
         927.45          108301 
         927.57          109789 
         927.69          110806 
         927.81          111174 
         927.93          110948 
         928.05          109985 
        928.132          108642 
        928.158          108121 
         928.17          107866 
        928.182          107601 
        928.232          106401 
        928.333          103486 
        928.433         99917.1 
        928.533         95564.1 
        928.633         91112.2 
        928.833         81276.8 
        928.977         73352.1 
        929.033         70058.1 
        929.089         66594.9 
        929.141         63207.6 
        929.201         59129.8 
        929.261         54946.1 
        929.379         46517.9 
        929.382         46302.4 
        929.461           40645 
        929.502           37767 
        929.543         34914.4 
        929.645         28106.4 
        929.655         27479.8 
        929.707         24428.1 
        929.769         21270.7 
        929.827         19169.4 
        929.883         18255.1 
         929.91         18187.8 
        929.939         18191.7 
        929.954           18196 
        929.968           18200 
        929.982         18203.9 
        929.996         18207.9 
         930.01         18211.9 
        930.024         18215.8 
        930.038         18219.8 
        930.052         18223.8 
        930.081           18232 
        930.137         18327.5 
        930.201         19500.3 
        930.247           21253 
        930.249         21340.7 
        930.251         21429.2 
        930.301         23984.5 
        930.326         25341.5 
        930.402           30129 
        930.478         35415.2 
         930.63         46562.8 
        930.633         46788.7 
        930.782           58105 
        930.931         69021.1 
         931.08         79111.3 
        931.229         88615.5 
        931.379         98216.9 
        931.516          107201 
        931.677          117808 
        931.838          127284 
        931.999          135651 
         932.16          141930 
        932.321          147360 
        932.483          151773 
        932.644          155664 
        932.805          158940 
        932.966          161649 
        933.127          163893 
        933.173          164451 
        933.265          165453 
        933.288          165678 
        933.403          166653 
        933.432          166862 
        933.542          167510 
        933.652          167940 
        933.762          168223 
        933.872          168175 
        933.982          167574 
        934.092          166310 
        934.202          164549 
        934.312          162278 
        934.413          159737 
        934.422          159494 
        934.533          156229 
        934.652          152079 
        934.771          147267 
         934.89          141983 
        935.009          136184 
        935.026          135320 
        935.128          130371 
         935.23          125756 
        935.332          120803 
        935.434          115546 
        935.537          110016 
        935.639          104214 
        935.741           98341 
        935.746         98043.8 
        935.843         92172.8 
        935.945           85636 
        936.144           72119 
        936.343         57999.1 
        936.484         47477.3 
        936.542         43066.5 
        936.601         38697.8 
        936.605         38399.4 
        936.717         30420.5 
        936.829         23824.4 
        936.894           21260 
        936.938         20402.4 
        936.941         20380.6 
        936.944         20360.5 
        936.973         20279.6 
        936.987         20281.6 
        936.994         20283.7 
        937.001         20285.9 
        937.015         20290.2 
        937.029         20294.6 
        937.043         20298.9 
        937.058         20303.6 
        937.072         20307.9 
        937.086         20312.3 
        937.101         20316.9 
        937.115         20321.3 
        937.143           20330 
          937.2         20440.4 
        937.314         23951.1 
        937.428         30810.7 
        937.493         35431.2 
        937.542         39155.9 
        937.593         43106.1 
        937.694         50947.5 
        937.788         58211.2 
        937.894         66245.8 
            938         74038.2 
        938.106         81785.7 
        938.212         89344.7 
        938.318         96633.2 
        938.424          103611 
         938.53          110325 
        938.571          112992 
        938.743          123653 
        938.899          132928 
        938.914          133792 
        939.085          143700 
        939.271          155976 
        939.457          167723 
        939.643          178999 
         939.83          189552 
        940.016          199510 
        940.202          208793 
        940.388          216162 
        940.408          216913 
        940.574          222909 
         940.74          228574 
        940.907          233979 
        941.073          239046 
        941.239          243789 
        941.405          248073 
        941.571          251806 
        941.737          255269 
         942.07          261373 
        942.236          264042 
        942.402          266314 
        942.421          266553 
        942.568          268257 
        942.734          269868 
        943.048          271946 
        943.204          273103 
        943.361          273695 
        943.517          273778 
        943.674          273364 
         943.83          272457 
        943.987          271068 
        944.144          268782 
        944.301          265708 
        944.457          262001 
        944.614          257660 
         944.77          252751 
        944.927          247605 
        945.083          241899 
        945.173          238376 
        945.241          235609 
        945.308          232743 
        945.442          226824 
        945.576          220550 
         945.71          213962 
        945.844          207018 
        945.978          200994 
        946.112          195160 
        946.246          189138 
        946.381          182964 
        946.515          176730 
        946.783          163457 
        946.944          155306 
        947.051          149688 
        947.158          143944 
        947.265          137994 
        947.372          131860 
         947.48          125523 
        947.587          118906 
        947.694          111966 
        947.801          104732 
        947.908         97080.9 
        947.947           94189 
        948.015           89111 
        948.083         83836.9 
        948.219         73049.3 
        948.355         61741.7 
        948.437         54758.6 
        948.491         50125.1 
        948.546         45532.4 
        948.654         36769.5 
        948.717         32232.7 
        948.747         30274.6 
        948.762         29351.7 
        948.777         28454.8 
        948.781         28236.8 
        948.835         25721.7 
        948.837         25653.7 
        948.893         24379.7 
        948.922         24280.1 
        948.951         24288.1 
        948.966         24293.5 
         948.98         24298.5 
        948.994         24303.6 
        949.009           24309 
        949.023           24314 
        949.037         24319.1 
        949.052         24324.5 
        949.066         24329.6 
        949.095         24340.1 
        949.153           24474 
         949.23           26639 
        949.258         28055.9 
        949.269         28660.8 
         949.28           29326 
         949.33         32589.6 
         949.36         34719.6 
         949.43         40203.9 
          949.5         46149.1 
        949.598           54768 
         949.64         58488.3 
        949.781         70718.5 
        949.963         85986.3 
        950.145          100562 
        950.327          114186 
        950.509          126898 
        950.691          138858 
        950.832          147699 
         950.86          149435 
        950.874          150295 
        950.888          151152 
        950.944          154560 
        951.056          161270 
         951.28          174332 
        951.504          187312 
        951.728          199753 
        951.953          212197 
        952.065          218315 
        952.177          224492 
        952.289          231988 
        952.401          239369 
        952.512          246607 
        952.625          253893 
        952.738          261124 
        952.964          275335 
        953.417          302986 
        953.643          316999 
        953.869          330709 
        954.095          343634 
        954.322          355638 
        954.548          367488 
        954.774          379171 
        955.226          401203 
        955.343          406714 
        955.511          414458 
        955.679          421998 
        955.846          428994 
        956.014          435133 
        956.349          447234 
        956.685          458616 
         957.02          469345 
        957.355          479388 
         957.69          488662 
        958.026          497192 
        958.361          504973 
        958.696          511973 
        958.774          513484 
        959.032          518115 
        959.289          522236 
        959.803          528994 
        960.206          532880 
        960.318          533703 
         960.43          534416 
        960.654          536025 
        961.102          537662 
        961.551          537172 
        961.999          534498 
        962.447          529685 
        962.896          522830 
        963.344          513980 
        963.354          513763 
        963.793          503384 
        964.231          491477 
        964.669          478125 
        965.108          463592 
        965.546          448060 
        965.984          431579 
        966.423          414103 
        966.861          395592 
        967.299          376143 
        967.444          369451 
        967.738          355374 
        968.032          340772 
        968.326          325466 
         968.62          309504 
        968.915          292733 
        969.121          280493 
        969.209          275097 
        969.297          269606 
        969.473          258138 
        969.649          246211 
        969.723          241047 
        969.824          233799 
        969.927          226236 
        970.029          218422 
         970.13          210401 
        970.232          202090 
        970.334          193461 
        970.435          184466 
        970.537          175144 
        970.607          168524 
        970.639          165423 
        970.741          155054 
        970.874          140785 
        971.007          125452 
        971.142          108792 
        971.203          100685 
        971.275         90587.8 
        971.348         80209.3 
        971.401         72396.1 
        971.467         62742.3 
        971.493         58943.8 
        971.585         46530.8 
        971.644         39882.5 
        971.703         35329.7 
        971.732         34177.7 
        971.762         33789.1 
        971.778         33770.2 
        971.792         33775.6 
        971.806         33782.2 
        971.821         33789.4 
        971.827         33792.2 
        971.833         33795.1 
        971.836         33796.3 
        971.839         33797.9 
        971.851         33803.5 
        971.866         33810.8 
         971.88         33817.4 
         971.91         33841.6 
        971.969         35137.1 
        972.037         40403.1 
        972.087           46101 
        972.137         52658.7 
         972.15           54463 
        972.237         67162.9 
        972.324         80110.3 
        972.499          104737 
        972.548          111197 
        972.673          126640 
        972.798          140793 
        972.923          153775 
        973.048          165838 
        973.173          177062 
        973.298          187550 
        973.423          197637 
        973.548          207203 
        973.601          211133 
        973.673          216369 
        973.746          221475 
         973.89          231450 
        974.034          241039 
        974.178          250188 
        974.466          267948 
        974.754          284956 
        975.022          299784 
        975.043          300952 
        975.176          308394 
        975.331          316735 
        975.485          324272 
         975.64          331831 
        975.949          347042 
        976.259          361506 
        976.568          376278 
        976.877          391901 
        977.186          408646 
        977.541          427015 
        977.805          440590 
        977.983          450162 
        978.203          461070 
        978.423          472486 
        978.643          484515 
        978.865          497525 
        979.085          511561 
        979.305          526892 
        979.745          556398 
        980.187          586045 
        980.407          599249 
        980.627          613154 
        980.848          624508 
        981.068          635607 
        981.288          646932 
        981.509          657733 
         981.95          679564 
        982.831          720697 
        983.503          752766 
        983.713          763416 
        983.923          774289 
        984.344          795027 
        985.184          834737 
        985.431          846135 
        986.025          874817 
        986.322          888863 
        986.618          902743 
        986.915          913924 
        987.212          922237 
        987.508          930204 
        987.805          937486 
        988.399          955745 
        988.672          966580 
        988.992          977086 
