# Koester WD models
# teff = 12750 K (value for the effective temperature for the model. Temperatures are given in K)
# logg = 8.5 log(cm/s2) (value for Log(G) for the model.)
#
# column 1: WAVELENGTH (ANGSTROM), Wavelength in Angstrom
# column 2: FLUX (ERG/CM2/S/A), Flux in erg/cm2/s/A
         899.23         20815.2 
        900.737         21313.3 
        902.486         21903.2 
        904.235         22506.9 
        906.224         23210.5 
        907.733         23756.2 
         908.45         24019.4 
        909.241         24312.5 
        910.032         24608.5 
        911.193         25049.1 
        911.613         25209.9 
        911.824         25290.5 
        911.929         25330.8 
        912.034           25371 
        912.139         25670.2 
        912.244         25992.3 
        912.349         26336.4 
        912.454           26703 
        912.559         27122.5 
        912.664         27574.8 
         912.77         28045.9 
        912.875         28531.9 
        912.886         28584.6 
         912.98         29002.2 
        913.085         29221.2 
        913.284         28786.6 
        913.435           28357 
        913.483         28146.3 
        913.531         28132.4 
        913.627         28435.5 
        913.772         27257.3 
        913.818         27105.7 
         913.82         27107.5 
        913.822         27110.2 
        913.872         27403.8 
        913.972         28719.2 
        913.979           28736 
        914.072         27055.8 
        914.165         26051.9 
        914.351         29991.3 
        914.499         26051.6 
        914.537         25612.1 
        914.575           25491 
        914.652         26179.2 
        914.804           32780 
        914.841         32629.2 
        914.956         26809.8 
        915.071         25310.3 
        915.186           27026 
        915.301         35574.1 
        915.416         37029.6 
         915.42         36842.1 
        915.531           28372 
        915.609         25602.7 
        915.643         25412.3 
        915.677         25386.8 
        915.745         25661.7 
        915.881         34356.5 
        916.017         46456.9 
        916.153         41838.5 
        916.289         28135.4 
        916.379         25650.9 
        916.421         25624.1 
        916.425           25625 
        916.429         25626.4 
        916.479         25691.1 
         916.58         29169.2 
         916.68         41401.5 
         916.78         54630.4 
         916.88         61390.2 
         916.98         59281.2 
         917.08         48336.9 
         917.18         34631.7 
        917.182         34372.2 
         917.28         26417.6 
        917.378         25992.8 
        917.575         34843.4 
        917.771         67140.5 
        917.967         83167.4 
        918.163         73101.4 
        918.359           42348 
         918.51         26673.6 
        918.556         26469.9 
        918.602         26486.3 
        918.694         26749.8 
        918.878         49068.2 
        919.062         84202.5 
        919.201          103588 
        919.241          107317 
        919.246          107730 
        919.251          108132 
        919.301          111139 
        919.402          113448 
        919.502          111461 
        919.602          104624 
        919.702         92711.9 
        919.802         76436.5 
        919.902         57749.7 
        920.002         39424.5 
        920.102         27844.7 
        920.163         27131.1 
        920.189         27141.1 
        920.202         27146.5 
        920.215         27151.9 
        920.267         27174.5 
        920.372         31347.3 
        920.476         48113.2 
         920.58         69308.9 
        920.684         89963.6 
        920.788          108729 
        920.892          124011 
        920.996          135625 
          921.1          143578 
        921.204          148353 
        921.308          150331 
        921.413          149081 
        921.517          144491 
        921.621          136152 
        921.725          123681 
        921.829          109221 
        921.933         91699.6 
        922.037         71349.3 
        922.141           50005 
        922.245           32709 
        922.294         28615.4 
         922.35         28053.9 
        922.405         28077.4 
        922.515         28711.8 
        922.625         42487.2 
         922.66         48906.1 
        922.735         64474.6 
         922.81         80511.2 
         922.96          110098 
         923.11          135925 
         923.26          158963 
        923.411          176581 
        923.561          188762 
        923.711          196947 
        923.861          201709 
        924.011          202724 
        924.161          199285 
        924.312          190990 
        924.462          177754 
        924.612          160528 
        924.762          139748 
        924.912          115214 
        925.062         86738.4 
        925.212         54289.2 
        925.241         48299.5 
        925.363         30536.7 
        925.484         29423.3 
        925.605         30648.7 
        925.726         48645.4 
        925.847         75081.9 
        925.968          100796 
        926.089          123709 
         926.21          144835 
        926.295          158574 
        926.332          164289 
        926.369          169836 
        926.443          180997 
        926.591          202481 
        926.739          221688 
        926.887          237718 
        927.035          249599 
        927.183          258629 
        927.332          265464 
         927.48          270618 
        927.628          273955 
        927.776          275330 
        927.924          274373 
        927.962          273751 
        928.072          270833 
        928.182          266066 
        928.293          259694 
        928.403          251708 
        928.513          241868 
        928.623          231711 
        928.733          221006 
        928.843          209183 
        928.953          196154 
        928.985          192183 
        929.037          185449 
        929.063          181981 
        929.089          178401 
        929.125          173239 
        929.193          163056 
        929.261          152275 
        929.398          129003 
        929.493          111311 
        929.526          104831 
        929.534          103068 
        929.543          101279 
        929.593         90760.6 
        929.617         85501.9 
        929.655         76985.4 
        929.693         68359.5 
        929.769         51452.1 
        929.827         40367.9 
        929.883         33152.9 
         929.91         31663.2 
        929.939         31466.5 
        929.954         31472.8 
        929.968         31479.4 
        929.982           31486 
        929.996         31492.6 
         930.01         31499.2 
        930.024         31505.8 
        930.038         31512.4 
        930.052           31519 
        930.081         31533.7 
        930.137         33278.9 
        930.201         42022.9 
        930.247         50951.6 
        930.249         51380.1 
        930.251         51811.1 
        930.301         62963.8 
        930.326         68514.1 
        930.402         85992.9 
        930.478          102602 
         930.63          132537 
        930.633          133089 
        930.782          159443 
        930.931          183478 
         931.08          204971 
        931.229          225156 
        931.379          244341 
        931.528          264096 
        931.677          284588 
        931.788          299124 
        931.814          302414 
        931.826          303908 
        931.838          305393 
        931.888          311484 
        931.988          323050 
        932.188          341567 
        932.389          356404 
        932.589          367730 
        932.789          377164 
        932.989          384732 
        933.189          390610 
        933.347          394072 
        933.375          394565 
        933.377          394600 
        933.389          394801 
        933.403          395027 
        933.432          395382 
         933.46          395687 
        933.542          396350 
        933.652          396689 
        933.762          396444 
        933.872          395479 
        933.982          393315 
        934.092          389733 
        934.202          385153 
        934.312          379542 
        934.413          373504 
        934.422          372926 
        934.533          365232 
        934.652          355811 
        934.771          345424 
         934.89          334790 
        935.009          323298 
        935.026          321602 
        935.128          311657 
         935.23          301971 
        935.332          291712 
        935.434          280902 
        935.537          269410 
        935.639          257490 
        935.741          245616 
        935.843          232892 
        935.945          219411 
         935.95          218736 
        936.047          205309 
        936.144          191305 
        936.338          161184 
        936.464          138770 
        936.532          125294 
        936.601          110801 
        936.645          100919 
        936.714         84634.8 
        936.737           79066 
        936.829         57162.8 
        936.887           45156 
        936.944         36895.8 
        936.973         35090.6 
        937.001         34943.6 
        937.015         34950.5 
        937.029         34957.8 
        937.043           34965 
        937.058         34972.8 
        937.072         34980.1 
        937.086         34987.3 
        937.101         34994.8 
        937.115         35002.1 
        937.143         35016.8 
          937.2         37034.4 
        937.314         57324.3 
        937.428         84976.9 
        937.493          100680 
        937.542          111986 
        937.593          123245 
        937.694          143739 
        937.794          162199 
        937.894          179234 
         937.95          188223 
        937.988          194123 
        937.994          195051 
            938          195999 
         938.05          203800 
         938.15          218738 
         938.25          233322 
         938.45          260524 
         938.65          286408 
        938.788          303461 
        938.809          306022 
        938.851          311099 
        938.914          318586 
        938.924          319817 
         939.04          333109 
        939.155          347724 
        939.271          362430 
        939.502          392539 
        939.733          422296 
        939.965          451089 
        940.081          464934 
        940.196          478232 
        940.312          489284 
        940.427          499554 
        940.576          512237 
        940.658          518953 
         940.74          525500 
        940.905          538057 
        941.069          550036 
        941.233          561450 
        941.397          572034 
        941.561          581546 
        941.725          590403 
        941.889          598574 
        942.054          605976 
        942.218          612645 
        942.382          618269 
        942.546          622893 
        942.701          626352 
         942.71          626525 
        942.874          629129 
        943.048          630741 
        943.221          631221 
        943.394          630191 
        943.567          627841 
         943.74          624162 
        943.913          619176 
        944.086          612290 
         944.26          602171 
        944.433          590638 
        944.606          577689 
        944.779          563561 
        944.943          549524 
        944.952          548729 
        945.125          532984 
        945.308          515366 
         945.49          497600 
        945.672          479300 
        945.854          460598 
        946.036          445192 
        946.218          429795 
        946.401          413474 
        946.583          396519 
        946.736          381788 
        946.947          361550 
        947.158          340150 
        947.264          328937 
        947.369          317229 
        947.476          304929 
        947.581          292146 
        947.687          278583 
        947.792          264168 
        947.898          248965 
        947.923          245124 
        948.003          232828 
        948.083          219929 
        948.243          192440 
        948.261          189085 
        948.403          160904 
        948.546          128166 
        948.599          114721 
        948.661         98238.9 
        948.688         90889.7 
        948.777         67140.9 
        948.835         53616.3 
        948.893         43872.3 
        948.922         41684.2 
        948.951         41552.6 
        948.966         41561.4 
         948.98         41569.6 
        948.994           41578 
        949.009         41586.8 
        949.023         41595.3 
        949.037         41603.5 
        949.052         41612.6 
        949.066         41620.8 
        949.095           41638 
        949.153         44035.1 
         949.23           58187 
        949.258         64808.5 
        949.269         67594.8 
         949.28         70504.6 
         949.33         83941.8 
         949.36         92262.6 
         949.43          111468 
          949.5          129765 
         949.64          163022 
        949.781          191970 
        949.795          194705 
        949.879          210382 
        949.921          217831 
        949.963          225149 
        950.131          253188 
        950.299          279052 
        950.467          302927 
        950.635          325064 
        950.719          335711 
        950.804          345943 
        950.888          355958 
        951.056          375408 
        951.224          394242 
        951.392          412874 
        951.728          449879 
        952.064          484933 
        952.233          503770 
        952.401          525353 
         952.57          546851 
        952.738          568518 
        953.075          612551 
        953.413          656153 
         953.75          700170 
        953.918          722174 
        954.087          742327 
        954.256          760756 
        954.425          779269 
        954.593          797936 
        954.762          816726 
        954.859          827489 
         954.93          835296 
        955.099          853734 
        955.437          890525 
        956.014          949289 
        956.592      1.00359e+6 
        957.169      1.05486e+6 
        957.458      1.07881e+6 
        957.747      1.10142e+6 
        958.036      1.12244e+6 
        958.324       1.1417e+6 
        958.514      1.15334e+6 
        958.613      1.15905e+6 
        958.901      1.17435e+6 
        959.289      1.19123e+6 
        959.676      1.20312e+6 
        959.697      1.20364e+6 
        960.063      1.21098e+6 
         960.43      1.21426e+6 
        960.796       1.2157e+6 
        961.162      1.21229e+6 
        961.529      1.20421e+6 
        961.895      1.19171e+6 
        962.261      1.17576e+6 
        962.628      1.15672e+6 
        962.994      1.13489e+6 
        963.222      1.12013e+6 
         963.36      1.11087e+6 
        963.727      1.08525e+6 
        964.231      1.04796e+6 
        964.735      1.00881e+6 
         965.24          968355 
        965.744          926383 
        966.249          883532 
        966.483          863398 
        966.753          839754 
        967.257          794248 
        967.645          758428 
        968.032          721373 
        968.316          693048 
        968.419          682586 
        968.561          668038 
        968.807          642327 
        969.052          615381 
        969.297          587374 
        969.542          557796 
        969.648          544293 
        969.787          526123 
        969.927          507270 
        970.066          487421 
        970.205          466605 
        970.344          444714 
        970.483          421558 
        970.622          396595 
        970.648          391709 
        970.761          369470 
        970.874          345547 
        970.987          319880 
          971.1          291616 
        971.214          260274 
        971.264          245005 
        971.279          240220 
        971.306          231551 
        971.327          224464 
        971.348          217227 
        971.432          185770 
        971.467          171618 
        971.585          119082 
        971.644         92448.9 
        971.703         70121.6 
        971.732         62502.9 
        971.762         58080.5 
        971.778         57223.5 
        971.792         57067.7 
        971.806         57071.1 
        971.821         57082.7 
        971.827         57087.1 
        971.833         57091.8 
        971.836           57094 
        971.839         57096.6 
        971.851         57105.7 
        971.866         57117.3 
         971.88         57128.9 
         971.91         57753.5 
        971.969         68590.7 
        972.037         94215.1 
        972.087          116988 
        972.137          140308 
         972.15          146267 
        972.237          183713 
        972.324          217074 
        972.499          272649 
        972.548          286264 
        972.673          318133 
        972.798          346565 
        972.923          372291 
        973.048          395668 
        973.173          417122 
        973.298          437156 
        973.351          445264 
        973.423          455961 
        973.548          473834 
        973.746          500465 
        973.943          525755 
         974.14          549119 
        974.337          571858 
        974.534          594418 
        974.731          615633 
        974.928          635927 
        975.126          656285 
          975.4          683629 
         975.52          694609 
         975.64          705526 
         975.88          727552 
        976.361          770573 
        976.601          792737 
        976.841          816107 
        977.081          840872 
        977.321          866941 
        977.802          915149 
        978.282          965182 
        978.522          991311 
        978.762      1.01961e+6 
        979.003        1.051e+6 
        979.181      1.07659e+6 
        979.243      1.08604e+6 
        979.305      1.09579e+6 
        979.429       1.1129e+6 
        979.553      1.13091e+6 
        979.801      1.17019e+6 
        979.925      1.19177e+6 
        980.049      1.21046e+6 
        980.173      1.22696e+6 
        980.298      1.24415e+6 
        980.422      1.26201e+6 
        980.546      1.28048e+6 
        980.794      1.31405e+6 
        981.042      1.34484e+6 
         981.29      1.37689e+6 
        981.636      1.42023e+6 
        981.787      1.43978e+6 
        982.207      1.49434e+6 
        982.779      1.56745e+6 
        983.066      1.60548e+6 
        983.351      1.64486e+6 
        983.637      1.68737e+6 
        983.923      1.73182e+6 
        984.496      1.81869e+6 
         984.66       1.8448e+6 
         985.64      1.99231e+6 
        986.129       2.0699e+6 
        986.373      2.10802e+6 
        986.618       2.1466e+6 
        986.863      2.17856e+6 
