# Koester WD models
# teff = 13500 K (value for the effective temperature for the model. Temperatures are given in K)
# logg = 8.25 log(cm/s2) (value for Log(G) for the model.)
#
# column 1: WAVELENGTH (ANGSTROM), Wavelength in Angstrom
# column 2: FLUX (ERG/CM2/S/A), Flux in erg/cm2/s/A
         899.23         41828.7 
         901.15         43026.9 
        902.692         44009.6 
        904.235         45013.1 
          905.4         45784.6 
        907.321         47080.8 
         908.45         47857.5 
        909.241         48407.2 
        910.032         48962.3 
        911.193           49788 
        911.613         50088.9 
        911.824         50239.4 
        911.929         50314.8 
        912.034         50389.9 
        912.139         51196.7 
        912.244         52080.7 
        912.349         53017.8 
        912.454           54037 
        912.559         55159.5 
        912.664           56335 
         912.77         57553.7 
        912.875         58787.1 
        912.886         58913.7 
         912.98         59923.1 
        913.085         60406.9 
        913.284           58733 
        913.435         57625.3 
        913.483           56828 
        913.531           56707 
        913.627         57992.2 
        913.772         54477.1 
        913.818         53925.4 
         913.82         53929.2 
        913.822         53936.1 
        913.872           54878 
        913.972         59374.5 
        913.979         59477.3 
        914.072         54387.3 
        914.165         51157.7 
        914.351         63224.9 
        914.499           51409 
        914.537         49854.6 
        914.575         49408.1 
        914.652         51717.5 
        914.804         70840.1 
        914.841         70561.7 
        914.956         53973.2 
        915.071         48589.8 
        915.186         54516.7 
        915.301         77663.6 
        915.416         81267.7 
         915.42         80847.3 
        915.531         59018.9 
        915.609         49417.6 
        915.643         48554.6 
        915.677         48404.7 
        915.745         49533.8 
        915.881         75229.2 
        916.017          101615 
        916.153         92588.1 
        916.289           58236 
        916.379         48887.6 
        916.421         48674.3 
        916.425           48674 
        916.429         48675.8 
        916.479         48961.4 
         916.58           61283 
         916.68         92183.4 
         916.78          118739 
         916.88          131224 
         916.98          127721 
         917.08          107082 
         917.18         76523.9 
        917.182         75868.8 
         917.28           51513 
        917.378         49280.6 
        917.575           77040 
        917.771          143236 
        917.967          171437 
        918.163          154322 
        918.359         94993.3 
         918.51         51445.2 
        918.556         50151.4 
        918.602         50161.8 
        918.694         51586.8 
        918.878          109629 
        919.062          174850 
        919.201          207860 
        919.241          214079 
        919.246          214770 
        919.251          215442 
        919.301          220424 
        919.402          224264 
        919.502          220932 
        919.602          209668 
        919.702          189693 
        919.802          161469 
        919.902          127169 
        920.002         88126.4 
        920.102         55032.5 
        920.163         51336.1 
        920.189         51343.7 
        920.202         51353.4 
        920.215         51363.2 
        920.267         51414.7 
        920.372         66649.5 
        920.476          107706 
         920.58          148888 
        920.684          185337 
        920.788          216847 
        920.892          242051 
        920.996          261064 
          921.1          274266 
        921.204          282237 
        921.308          285603 
        921.413          283569 
        921.517          275997 
        921.621          262241 
        921.725          241832 
        921.829          218116 
        921.933          188748 
        922.037          152925 
        922.086          133988 
        922.141          111671 
        922.245         69818.8 
        922.405         53033.9 
        922.564         70145.8 
        922.636         99382.7 
        922.723          135506 
         922.81          169553 
        922.984          227040 
        923.158          275527 
        923.333          315177 
        923.507          343203 
        923.681          360539 
        923.855          370570 
        924.029          372386 
        924.203          364051 
        924.378          344799 
        924.552          315039 
        924.726          278249 
          924.9          232700 
        925.074          176699 
        925.248          104789 
        925.362         61269.9 
        925.423         55415.5 
        925.484         55458.8 
        925.606         61484.7 
        925.728          109494 
         925.85          161869 
        925.972          207159 
        926.094          245436 
        926.216          280254 
        926.248          289040 
        926.309          304878 
        926.339          312446 
        926.369          319849 
        926.489          350181 
        926.609          379061 
        926.729          405328 
        926.849          428011 
        926.969          446782 
        927.089          460611 
        927.209          472207 
         927.33          481468 
         927.45          488857 
         927.57          494166 
         927.69          497679 
         927.81          498379 
         927.93          496648 
         928.05          492083 
        928.132          486758 
        928.158          484745 
         928.17          483755 
        928.182          482731 
        928.232          478257 
        928.333          467557 
        928.433          454522 
        928.533          438796 
        928.633          423565 
        928.833          389162 
        928.977          360435 
        929.033          348368 
        929.089          335723 
        929.141          323226 
        929.201          308167 
        929.261          292486 
        929.382          258966 
        929.461          235172 
        929.481          228840 
        929.502          221946 
        929.543          207904 
        929.625          177142 
        929.655          165016 
        929.769          114453 
        929.827         88108.5 
        929.883         66820.1 
         929.91           60606 
        929.939           59149 
        929.954         59141.7 
        929.968         59153.4 
        929.982         59165.3 
        929.996         59176.9 
         930.01         59188.9 
        930.024         59200.8 
        930.038         59212.7 
        930.052         59224.7 
        930.081         59269.3 
        930.137         67060.8 
        930.201         92233.1 
        930.247          113310 
        930.249          114255 
        930.251          115203 
        930.301          138570 
        930.326          149361 
        930.402          181362 
        930.478          210462 
         930.63          260544 
        930.633          261455 
        930.782          304777 
        930.931          344466 
         931.08          380133 
        931.229          413553 
        931.379          445286 
        931.528          477890 
        931.788          535849 
        931.814          541318 
        931.826          543819 
        931.838          546298 
        931.888          556429 
        931.988          575791 
        932.188          607110 
        932.389          632280 
        932.589          651469 
        932.789          667535 
        932.989          680431 
        933.189          690453 
        933.347          696287 
        933.375          697116 
        933.377          697173 
        933.389          697509 
        933.403          697886 
        933.432          698417 
         933.46          698866 
        933.542          699783 
        933.652          700079 
        933.762          699328 
        933.872          697383 
        933.982          693447 
        934.092          687167 
        934.202          679225 
        934.312          669580 
        934.413          659295 
        934.422          658314 
        934.533          645431 
        934.652          629619 
        934.771          612246 
         934.89          594518 
        935.026          572835 
        935.128          556530 
         935.23          540612 
        935.332          523823 
        935.434          506151 
        935.537          487292 
        935.639          467758 
        935.741          448151 
        935.843          427319 
        935.945          405137 
         935.95          404025 
        936.047          381901 
        936.144          358892 
        936.338          309659 
        936.464          273007 
        936.532          250827 
        936.601          226407 
        936.645          209317 
        936.714          180419 
        936.737          170192 
        936.829          126322 
        936.887         98097.8 
        936.944         74113.6 
        936.973         66558.7 
        937.001         65359.6 
        937.015         65366.2 
        937.029         65379.1 
        937.043         65391.9 
        937.058         65405.4 
        937.072         65418.3 
        937.086         65431.2 
        937.101           65445 
        937.115         65457.9 
        937.143         65490.3 
          937.2         74377.8 
        937.314          126634 
        937.428          181204 
        937.493          209131 
        937.542          228742 
        937.593          247811 
        937.694          281703 
        937.794          311926 
        937.894          339741 
         937.95          354522 
        937.988          364161 
        937.994          365681 
            938          367236 
         938.05          380082 
         938.15          404669 
         938.25          428743 
         938.45          473491 
         938.65          515963 
        938.788          543838 
        938.809          548016 
        938.851          556244 
        938.914          568465 
        938.924          570482 
         939.04          592168 
        939.155          615850 
        939.271          639889 
        939.502          688936 
        939.733          737432 
        939.965          784368 
        940.081          806880 
        940.196          828714 
        940.312          846747 
        940.427          863649 
        940.576          884610 
        940.658          895674 
         940.74          906403 
        940.905          927260 
        941.069          947244 
        941.233          966241 
        941.397          983975 
        941.561          999944 
        941.725      1.01479e+6 
        941.889      1.02847e+6 
        942.054      1.04089e+6 
        942.218      1.05215e+6 
        942.382       1.0617e+6 
        942.546      1.06961e+6 
        942.701       1.0756e+6 
         942.71       1.0759e+6 
        942.874       1.0805e+6 
        943.048      1.08347e+6 
        943.221      1.08436e+6 
        943.394      1.08276e+6 
        943.567      1.07899e+6 
         943.74      1.07306e+6 
        943.913      1.06503e+6 
        944.086      1.05383e+6 
         944.26      1.03714e+6 
        944.433      1.01797e+6 
        944.606          996510 
        944.779          972914 
        944.943          949568 
        944.952          948233 
        945.125          921778 
        945.308          892432 
        945.672          832689 
        945.854          801895 
        946.036          776718 
        946.218          751400 
        946.401          724825 
        946.583          697176 
        946.765          668713 
        947.042          625020 
          947.1          615463 
        947.129          610656 
        947.158          605809 
        947.274          585872 
         947.39          564783 
        947.507          542581 
        947.623          519211 
        947.739          494238 
        947.855          467576 
        947.859          466633 
        947.971          439107 
        948.083          410038 
        948.195          379372 
        948.307          345933 
        948.419          308677 
        948.489          282767 
        948.517          271685 
        948.532          265943 
        948.546          260107 
        948.602          235571 
        948.651          212676 
        948.661          207841 
        948.714          180944 
        948.777          146883 
        948.835          115361 
        948.893         87386.9 
        948.922           78247 
        948.951         77104.7 
        948.966         77120.1 
         948.98         77134.9 
        948.994         77149.7 
        949.009         77165.4 
        949.023         77180.1 
        949.037         77194.9 
        949.052         77210.6 
        949.066         77225.4 
        949.095         77256.5 
        949.153         87693.8 
         949.23          126482 
        949.258          141670 
        949.269          147816 
         949.28          154069 
         949.33          181306 
         949.36          197045 
         949.43          231507 
          949.5          263171 
         949.64          318331 
        949.781          365364 
        949.795          369762 
        949.879          395215 
        949.921          407399 
        949.963          419261 
        950.131          465050 
        950.299          507361 
        950.467          546345 
        950.635          582404 
        950.719          599708 
        950.804          616343 
        950.888          632513 
        951.056          663991 
        951.224          694496 
        951.392          724699 
        951.728          785075 
        952.064          842349 
        952.233          873118 
        952.401          908549 
         952.57          944074 
        952.738          980189 
        953.075      1.05434e+6 
        953.413      1.12854e+6 
         953.75      1.20468e+6 
        953.918       1.2431e+6 
        954.087      1.27865e+6 
        954.256      1.31145e+6 
        954.425      1.34473e+6 
        954.593      1.37856e+6 
        954.762      1.41283e+6 
        954.859      1.43265e+6 
         954.93      1.44712e+6 
        955.099      1.48147e+6 
        955.437      1.55106e+6 
        955.725      1.61129e+6 
        956.014      1.66474e+6 
        956.303      1.71544e+6 
        956.592        1.765e+6 
        957.169      1.86027e+6 
        957.458      1.90542e+6 
        957.747      1.94797e+6 
        958.036      1.98757e+6 
        958.324      2.02391e+6 
        958.514      2.04597e+6 
        958.613      2.05678e+6 
        958.901       2.0856e+6 
        959.289      2.11708e+6 
        959.676      2.13807e+6 
        959.697      2.13896e+6 
        960.063      2.15095e+6 
         960.43      2.15486e+6 
        960.796      2.15112e+6 
        961.162      2.13942e+6 
        961.529      2.12047e+6 
        961.895      2.09449e+6 
        962.261      2.06278e+6 
        962.628      2.02576e+6 
        962.994      1.98352e+6 
         963.36      1.93769e+6 
        963.727      1.88914e+6 
        963.955      1.85798e+6 
        964.093      1.83867e+6 
        964.231      1.81864e+6 
        964.507      1.77849e+6 
         965.06       1.6964e+6 
        966.165      1.52774e+6 
        966.507      1.47491e+6 
        967.269      1.35507e+6 
        967.651      1.29407e+6 
        968.032      1.23199e+6 
        968.292      1.18818e+6 
        968.413      1.16768e+6 
        968.795      1.10204e+6 
        969.046      1.05714e+6 
        969.297      1.01064e+6 
        969.548          961494 
        969.672          936028 
        969.799          909142 
        969.927          881327 
        970.054          852487 
        970.181          822302 
        970.308          790729 
        970.435          757674 
        970.504          738695 
        970.562          722161 
        970.689          684047 
        970.874          622532 
        971.059          552757 
        971.142          518225 
        971.245          470636 
        971.348          416874 
        971.451          353498 
        971.523          301354 
        971.554          276865 
        971.585          250982 
        971.591          245957 
        971.644          198363 
        971.647          195704 
        971.703          146894 
        971.732          125555 
        971.762          110263 
        971.778          105989 
        971.792          104563 
        971.806          104376 
        971.821          104394 
        971.827          104403 
        971.833          104411 
        971.836          104415 
        971.839          104419 
        971.851          104435 
        971.866          104455 
         971.88          104517 
         971.91          108483 
        971.969          142557 
        972.037          202052 
        972.087          247177 
        972.137          289208 
         972.15          299579 
        972.237          363068 
        972.324          417128 
        972.499          505991 
        972.548          527844 
        972.673          578955 
        972.798          624731 
        972.923          666040 
        973.048          703635 
        973.173          737963 
        973.298          770017 
        973.423          800063 
        973.548          828413 
        973.601          840128 
        973.673          855701 
        973.746          870919 
         973.89          900550 
        974.034          928821 
        974.178          956015 
        974.466      1.00931e+6 
        974.754       1.0601e+6 
        975.043      1.10814e+6 
        975.331      1.15638e+6 
        975.556      1.19004e+6 
        975.598      1.19633e+6 
        975.619      1.19948e+6 
         975.64      1.20263e+6 
        975.724      1.21527e+6 
        975.892      1.24087e+6 
        976.228      1.29076e+6 
        976.565      1.34222e+6 
        976.901      1.39738e+6 
        977.237      1.45812e+6 
        977.574      1.51554e+6 
         977.91      1.57646e+6 
        978.246      1.63615e+6 
        978.414      1.66735e+6 
        978.582      1.70015e+6 
         978.75      1.73537e+6 
        978.919      1.77332e+6 
        979.087       1.8142e+6 
        979.105      1.81878e+6 
        979.205      1.84506e+6 
        979.255      1.85874e+6 
        979.305      1.87282e+6 
        979.505      1.92296e+6 
        979.705      1.97813e+6 
        979.905      2.03958e+6 
        980.105      2.09351e+6 
        980.306      2.14338e+6 
        980.506      2.19665e+6 
        980.706      2.24997e+6 
        980.906      2.29435e+6 
        981.106      2.34042e+6 
        981.506       2.4345e+6 
        982.307       2.6225e+6 
        982.707       2.7162e+6 
        983.108      2.81263e+6 
        983.508      2.91541e+6 
        983.863       3.0151e+6 
        983.893       3.0238e+6 
        983.908      3.02817e+6 
        983.923      3.03254e+6 
        983.983      3.05012e+6 
        984.103      3.08361e+6 
        984.344      3.14797e+6 
        984.824      3.28017e+6 
        984.951      3.31334e+6 
