# Koester WD models
# teff = 13500 K (value for the effective temperature for the model. Temperatures are given in K)
# logg = 9.5 log(cm/s2) (value for Log(G) for the model.)
#
# column 1: WAVELENGTH (ANGSTROM), Wavelength in Angstrom
# column 2: FLUX (ERG/CM2/S/A), Flux in erg/cm2/s/A
         899.23         83777.2 
        904.235         89692.2 
         908.45         94932.6 
        909.241         95942.7 
        910.032         96960.9 
        911.193         98469.5 
        911.613         99017.3 
        911.824           99291 
        911.929         99427.3 
        912.034         99563.4 
        912.139          100569 
        912.244          101590 
        912.349          102622 
        912.454          103665 
        912.559          104716 
        912.664          105784 
         912.77          106879 
        912.875          107958 
        912.886          108070 
        913.037          109538 
        913.085          109984 
        913.284          111705 
        913.407          112593 
        913.531          113441 
        913.649          113847 
        913.654          113870 
        913.736          114357 
        913.779          114591 
        913.822          114777 
        913.994          114226 
        914.165          114575 
        914.336          113826 
        914.439          112435 
        914.507          111542 
        914.575          111319 
        914.712          112946 
        914.848          112000 
        914.897          109736 
        914.984          106275 
        915.071          104668 
        915.245          111440 
        915.419          112960 
        915.544          102894 
        915.594         99624.9 
        915.609         98719.8 
        915.643           97657 
        915.677           97379 
        915.745         99430.8 
        915.881          113029 
        916.017          125225 
        916.153          118580 
        916.289          100542 
        916.379         93484.4 
        916.421         92538.8 
        916.425         92527.4 
        916.429         92530.3 
        916.479         93749.5 
         916.58          103013 
         916.68          120768 
         916.78          138392 
         916.98          143281 
        916.982          143043 
         917.18          107823 
        917.378         89612.4 
        917.577          109462 
        917.775          158300 
        917.973          184686 
        918.171          164901 
        918.369          114983 
        918.534         89910.2 
        918.568         89072.6 
        918.602         88822.9 
         918.67         90090.2 
        918.806          109963 
        918.942          148282 
        919.078          191496 
        919.177          215947 
        919.214          223302 
        919.251          229397 
        919.325          237163 
        919.474          238137 
        919.622          218467 
         919.77          182084 
        919.918          135917 
        920.066         98193.6 
        920.165         90130.4 
        920.213         89858.7 
        920.214         89859.6 
        920.215         89860.5 
        920.265         90257.6 
        920.366         98803.1 
        920.466          122806 
        920.566          154858 
        920.666          190417 
        920.766          223049 
        920.866          253002 
        920.966          276941 
        921.066          294645 
        921.166          306250 
        921.266          311725 
        921.367          311823 
        921.467          305948 
        921.567          293760 
        921.667          275373 
        921.767          250733 
        921.867          221179 
        921.967          188964 
        922.067          153860 
        922.167          121021 
        922.267         97815.4 
        922.331         92744.5 
        922.368         92397.4 
        922.405         92396.1 
        922.479         92936.8 
        922.627          117630 
         922.74          155021 
        922.775          167491 
         922.81          180773 
         922.88          206530 
         923.02          255398 
         923.16          300510 
        923.301          339213 
        923.441          370488 
        923.581          393852 
        923.721          409500 
        923.861          418297 
        924.001          420540 
        924.141          415432 
        924.282          402375 
        924.422          380318 
        924.562          349245 
        924.702          312515 
        924.842          270066 
        924.982          222085 
        925.122          170576 
        925.262          120869 
        925.322          105244 
        925.403         96580.4 
        925.484         96411.4 
        925.646          105717 
        925.808          158250 
         925.97          220345 
        926.132          279485 
         926.22          309964 
        926.295          333986 
        926.369          357878 
        926.517          404006 
        926.665          444692 
        926.813          479253 
        926.961          508127 
        927.109          530376 
        927.257          548359 
        927.406          562342 
        927.554          571952 
        927.702          577748 
         927.85          579536 
        927.998          577315 
        928.038          575779 
         928.11          571126 
        928.146          568254 
        928.182          565009 
        928.327          548189 
        928.471          525152 
        928.615          495844 
        928.717          472480 
        928.759          462141 
        928.903          428290 
        928.917          424731 
        929.089          377899 
        929.261          324209 
        929.325          303121 
        929.434          264088 
        929.543          223702 
        929.652          180808 
        929.719          154460 
        929.753          141550 
        929.755          140814 
        929.761          138629 
        929.769          135750 
        929.819          119236 
        929.827          117018 
        929.883          105298 
         929.91          103070 
        929.939          102547 
        929.954          102545 
        929.968          102561 
        929.982          102580 
        929.996          102600 
         930.01          102620 
        930.024          102639 
        930.038          102659 
        930.052          102679 
        930.081          102747 
        930.137          105664 
        930.201          119855 
        930.247          135183 
        930.249          135905 
        930.251          136631 
        930.301          155662 
        930.326          165022 
        930.402          196009 
        930.478          226512 
         930.63          284715 
        930.633          285837 
        930.782          339273 
        930.931          389598 
         931.08          435965 
        931.229          479479 
        931.379          524869 
        931.528          569370 
        931.677          611297 
        931.788          639842 
        931.814          646213 
        931.826          649116 
        931.838          651990 
        931.888          663756 
        931.988          685942 
        932.188          720144 
        932.389          749144 
        932.589          773583 
        932.789          793576 
        932.989          808699 
        933.189          820361 
        933.347          827188 
        933.375          828162 
        933.377          828227 
        933.389          828623 
        933.403          829066 
        933.432          829858 
         933.46          830571 
        933.542          832214 
        933.652          833358 
        933.762          833289 
        933.872          831865 
        933.982          828337 
        934.092          822334 
        934.202          814247 
        934.312          804097 
        934.413          793227 
        934.422          792225 
        934.533          778791 
        934.652          761701 
        934.771          742085 
         934.89          720050 
        935.009          695329 
        935.026          691590 
        935.128          669935 
         935.23          649829 
        935.332          628438 
        935.434          605784 
        935.537          581883 
        935.639          556445 
        935.741          530031 
        935.746          528699 
        935.843          502262 
        935.945          472445 
        936.144          409968 
        936.343          343451 
        936.484          291799 
        936.542          268943 
        936.601          245595 
        936.605          243942 
        936.717          196656 
        936.829          150529 
        936.894          127361 
        936.938          116612 
        936.941          116165 
        936.944          115730 
        936.973          113217 
        936.987          112902 
        936.994          112856 
        937.001          112850 
        937.015          112865 
        937.029          112886 
        937.043          112908 
        937.058          112931 
        937.072          112952 
        937.086          112973 
        937.101          112996 
        937.115          113017 
        937.143          113066 
          937.2          116129 
        937.314          151099 
        937.428          198890 
        937.493          227120 
        937.542          248107 
        937.593          269266 
        937.694          309474 
        937.794          347140 
        937.894          382740 
         937.95          402422 
        937.988          415372 
        937.994          417427 
            938          419528 
         938.05          436772 
         938.15          470168 
         938.25          502554 
         938.45          563046 
         938.65          620050 
        938.788          657309 
        938.809          662970 
        938.851          674198 
        938.914          690711 
        938.924          693434 
         939.04          722811 
        939.155          756800 
        939.271          790305 
        939.387          822450 
        939.502          853552 
        939.618          883278 
        939.733          911605 
        939.965          967589 
        940.081          994088 
        940.196      1.01943e+6 
        940.312      1.04175e+6 
        940.427       1.0629e+6 
        940.576      1.08899e+6 
        940.658      1.10272e+6 
         940.74      1.11602e+6 
        940.905      1.14177e+6 
        941.069      1.16597e+6 
        941.233      1.18851e+6 
        941.397      1.20868e+6 
        941.561      1.22592e+6 
        941.725      1.24195e+6 
        941.889      1.25672e+6 
        942.054      1.27025e+6 
        942.218      1.28261e+6 
        942.382      1.29309e+6 
        942.546      1.30196e+6 
        942.701      1.30895e+6 
        942.874      1.31509e+6 
        943.048       1.3194e+6 
        943.221      1.32178e+6 
        943.394      1.32162e+6 
        943.567      1.31918e+6 
         943.74      1.31434e+6 
        943.913      1.30699e+6 
        944.086      1.29664e+6 
         944.26      1.28214e+6 
        944.433      1.26443e+6 
        944.606      1.24357e+6 
        944.779      1.22001e+6 
        944.943      1.19712e+6 
        944.952      1.19579e+6 
        945.125      1.16885e+6 
        945.308      1.13732e+6 
         945.49      1.10281e+6 
        945.672      1.06551e+6 
        945.854      1.02508e+6 
        946.007          993780 
        946.036          987855 
        946.218          949801 
        946.294          933386 
        946.583          872722 
         946.87          808178 
        947.014          774563 
        947.158          739842 
        947.302          703673 
        947.447          666065 
         947.59          626217 
        947.734          584195 
        947.878          538890 
         947.96          511376 
        948.022          490374 
        948.083          468581 
        948.206          423738 
        948.329          376470 
        948.359          364287 
        948.452          325079 
        948.546          283694 
        948.687          217291 
        948.732          196451 
        948.777          176178 
        948.841          149926 
        948.867          141491 
        948.893          135502 
        948.922          132550 
        948.939          132224 
        948.945          132219 
        948.951          132223 
        948.966          132249 
         948.98          132273 
        948.994          132297 
        949.009          132323 
        949.023          132347 
        949.037          132372 
        949.052          132398 
        949.066          132422 
        949.095          132472 
        949.153          135962 
         949.23          160157 
        949.258          172449 
        949.269          177285 
         949.28          182197 
         949.33          205314 
         949.36          219608 
         949.43          253512 
          949.5          287014 
         949.64          350451 
        949.781          408790 
        949.795          414376 
        949.879          447102 
        949.921          463212 
        949.963          478992 
        950.131          540257 
        950.299          597565 
        950.467          650596 
        950.635          700880 
        950.719          725020 
        950.804          748739 
        950.888          772097 
        951.056          817615 
        951.224          862012 
        951.392          905693 
        951.728          990817 
        951.896      1.03487e+6 
        952.065      1.07861e+6 
        952.233      1.12444e+6 
        952.401      1.17333e+6 
        952.688      1.25414e+6 
        952.737       1.2678e+6 
        952.788      1.28201e+6 
        952.888      1.30965e+6 
        953.089      1.36428e+6 
        953.489      1.47579e+6 
        953.889      1.58828e+6 
         954.29      1.69267e+6 
         954.49      1.74279e+6 
         954.69      1.79173e+6 
         954.89      1.83843e+6 
         955.09      1.88127e+6 
        955.491      1.96293e+6 
        955.768      2.01616e+6 
        955.891      2.03704e+6 
        956.014      2.05704e+6 
         956.26       2.1026e+6 
        956.506      2.14602e+6 
        956.999      2.22676e+6 
        957.491      2.29952e+6 
        957.984      2.36431e+6 
        958.476      2.42211e+6 
        958.648      2.44057e+6 
        958.969      2.47225e+6 
        959.289      2.50026e+6 
        959.429      2.51143e+6 
        959.609      2.52477e+6 
        959.929      2.54571e+6 
         960.43      2.57067e+6 
         960.68      2.58972e+6 
         960.93       2.6042e+6 
         961.18      2.61397e+6 
        961.431      2.61921e+6 
        961.681      2.61972e+6 
        961.931      2.61589e+6 
        962.181      2.60777e+6 
        962.431      2.59542e+6 
        962.682       2.5794e+6 
        962.932      2.55887e+6 
        963.182       2.5347e+6 
        963.432      2.50725e+6 
        963.634      2.48252e+6 
        963.682      2.47639e+6 
        963.933      2.44289e+6 
        964.231      2.39899e+6 
        964.529       2.3513e+6 
        964.827      2.30053e+6 
        965.424      2.19126e+6 
         966.02      2.07373e+6 
        966.617      1.94975e+6 
        967.213      1.81906e+6 
        967.588      1.73381e+6 
         967.81      1.68195e+6 
        968.032      1.62918e+6 
        968.476      1.51897e+6 
        968.544      1.50173e+6 
        968.921      1.40274e+6 
        969.109      1.35143e+6 
        969.297      1.29816e+6 
         969.42      1.26198e+6 
        969.485      1.24241e+6 
        969.673      1.18472e+6 
          969.8      1.14448e+6 
        969.927      1.10294e+6 
        970.053      1.05994e+6 
         970.18      1.01553e+6 
        970.306          969354 
        970.433          920817 
        970.559          870240 
        970.686          816088 
        970.751          786762 
        970.812          758506 
        970.874          729261 
        970.997          667541 
         971.12          601200 
         971.14          590472 
        971.244          528498 
        971.348          460529 
        971.452          385740 
        971.469          372910 
        971.527          327740 
        971.556          304692 
        971.585          281538 
        971.653          230413 
        971.699          201084 
        971.701          200017 
        971.703          198961 
        971.732          185718 
        971.744          181835 
        971.753          179701 
        971.762          178168 
        971.778          176891 
        971.792          176714 
        971.806          176735 
        971.821          176767 
        971.827          176781 
        971.833          176794 
        971.836          176800 
        971.839          176807 
        971.851          176833 
        971.866          176866 
         971.88          176897 
         971.91          177818 
        971.969          196454 
        972.037          239966 
        972.087          278326 
        972.137          318727 
         972.15          329148 
        972.237          397009 
        972.324          460334 
        972.499          571896 
        972.548          600418 
        972.673          667692 
        972.798          729490 
        972.923          786077 
        973.048          838441 
        973.173          887264 
        973.298          932544 
        973.423          976052 
        973.548      1.01761e+6 
        973.601      1.03462e+6 
        973.673      1.05725e+6 
        973.746      1.07945e+6 
         973.89      1.12302e+6 
        974.034      1.16492e+6 
        974.178      1.20509e+6 
        974.466      1.28393e+6 
        974.754      1.35991e+6 
        975.043      1.43169e+6 
        975.331      1.50284e+6 
        975.556      1.55267e+6 
        975.598      1.56197e+6 
        975.619      1.56663e+6 
         975.64      1.57128e+6 
        975.724      1.58993e+6 
        975.892      1.62734e+6 
        976.228      1.69951e+6 
        976.565      1.77322e+6 
        976.901      1.85164e+6 
        977.187       1.9241e+6 
        977.237      1.93745e+6 
        977.574      2.01775e+6 
        977.717      2.05256e+6 
        977.982      2.12021e+6 
        978.246      2.18362e+6 
        978.511      2.25137e+6 
        978.775      2.32569e+6 
        979.041      2.40829e+6 
        979.255      2.48371e+6 
        979.305      2.50278e+6 
        979.355       2.5192e+6 
        979.455      2.55283e+6 
        979.655      2.62492e+6 
        979.855      2.70542e+6 
        980.055      2.78379e+6 
        980.256         2.85e+6 
        980.456       2.9215e+6 
        980.856      3.05909e+6 
        980.991      3.10084e+6 
        981.256      3.18693e+6 
        981.657       3.3152e+6 
        981.725      3.33722e+6 
        982.457      3.57366e+6 
        982.823      3.69555e+6 
        983.191      3.81773e+6 
        983.557      3.94823e+6 
        983.923      4.08878e+6 
        984.657      4.36436e+6 
        985.627      4.71311e+6 
        986.123      4.90333e+6 
         986.37      4.99416e+6 
        986.618      5.08539e+6 
        986.866      5.16082e+6 
        987.114      5.21357e+6 
        987.362      5.26449e+6 
         987.61      5.31224e+6 
        987.858      5.35708e+6 
