# Koester WD models
# teff = 13750 K (value for the effective temperature for the model. Temperatures are given in K)
# logg = 9.5 log(cm/s2) (value for Log(G) for the model.)
#
# column 1: WAVELENGTH (ANGSTROM), Wavelength in Angstrom
# column 2: FLUX (ERG/CM2/S/A), Flux in erg/cm2/s/A
         899.23          111421 
        901.267          114484 
        902.751          116759 
        904.235          119071 
        905.166          120540 
        907.203          123805 
         908.45          125837 
        909.241          127140 
        910.032          128453 
        911.193          130397 
        911.613          131102 
        911.824          131455 
        911.929          131630 
        912.034          131805 
        912.139          133111 
        912.244          134461 
        912.349          135842 
        912.454          137233 
        912.559          138635 
        912.664          140041 
         912.77          141444 
        912.875          142828 
        912.886          142971 
        913.037          144866 
        913.085          145445 
        913.284          147690 
        913.531          149997 
        913.649          150615 
        913.736          151297 
        913.779          151600 
        913.822          151845 
        913.994          151358 
        914.165          151899 
        914.336          150900 
        914.439          149332 
        914.507          148374 
        914.575          148161 
        914.712          149799 
        914.848          148322 
        914.897          145629 
        914.984          141330 
        915.071          139415 
        915.245          147664 
        915.419          148904 
        915.544          136264 
        915.594          131858 
        915.609          130690 
        915.643          129315 
        915.677          128987 
        915.745          131724 
        915.881          149392 
        916.017          164463 
        916.153          155908 
        916.289          132611 
        916.379          122977 
        916.421          121671 
        916.425          121657 
        916.429          121662 
        916.479          123376 
         916.58          136167 
         916.68          159136 
         916.78          181563 
         916.88          193284 
         916.98          187603 
         917.08          167986 
         917.18          141768 
        917.182          141254 
         917.28          122059 
        917.378          116678 
        917.575          143491 
        917.771          205709 
        917.967          240071 
        918.163          217279 
        918.359          153879 
         918.51          118713 
        918.556          115422 
        918.602          114625 
        918.694          119044 
        918.878          169040 
        919.062          242861 
        919.201          285811 
        919.241          294547 
        919.246          295515 
        919.251          296455 
        919.301          303791 
        919.402          309507 
        919.502          304822 
        919.602          287704 
        919.702          260071 
        919.802          223929 
        919.902          183677 
        920.002          146185 
        920.102          120683 
        920.163          115924 
        920.189          115390 
        920.202          115304 
        920.215          115294 
        920.267          116092 
        920.372          130173 
        920.476          164310 
         920.58          207513 
        920.684          254982 
        920.788          296778 
        920.892          334671 
        920.996          363212 
          921.1          384006 
        921.204          396233 
        921.308          400754 
        921.413          397430 
        921.517          385627 
        921.621          365150 
        921.725          336813 
        921.829          300160 
        921.933          259505 
        922.037          213360 
        922.141          168168 
        922.245          132199 
        922.294          121695 
         922.35          118475 
        922.405          118215 
        922.515          122063 
        922.625          152455 
         922.66          166109 
        922.735          199556 
         922.81          234748 
         922.96          302611 
         923.11          366307 
         923.26          420791 
        923.411          465509 
        923.561          498907 
        923.711          520898 
        923.861          532814 
        924.011          535418 
        924.161          527382 
        924.312          507864 
        924.462          475449 
        924.612          431108 
        924.762          378907 
        924.912          317339 
        925.062          250518 
        925.212          179127 
        925.241          165817 
        925.363          127190 
        925.484          123188 
        925.605          127609 
        925.726          166916 
        925.847          224830 
        925.968          283576 
        926.089          339521 
         926.21          393060 
         926.22          397182 
        926.295          427473 
        926.332          442635 
        926.369          457422 
        926.517          515143 
        926.665          565612 
        926.813          608963 
        926.961          644740 
        927.109          672678 
        927.257          695272 
        927.406          712752 
        927.554          724615 
        927.702          731702 
         927.85          733929 
        927.998          731234 
        928.038          729355 
         928.11          723660 
        928.146          720119 
        928.182          716110 
        928.327          695228 
        928.471          666794 
        928.615          630700 
        928.717          601332 
        928.759          588266 
        928.903          545974 
        928.917          541535 
        929.089          482800 
        929.261          415309 
        929.325          388995 
        929.434          340049 
        929.543          288998 
        929.652          234628 
        929.719          200572 
        929.753          183944 
        929.755          182960 
        929.761          180017 
        929.769          176178 
        929.819          154536 
        929.827          151459 
        929.883          135352 
         929.91          131917 
        929.939          130914 
        929.954          130871 
        929.968          130885 
        929.982          130910 
        929.996          130934 
         930.01          130959 
        930.024          130984 
        930.038          131008 
        930.052          131033 
        930.081          131165 
        930.137          135815 
        930.201          155321 
        930.247          175420 
        930.249          176356 
        930.251          177297 
        930.301          202099 
        930.326          214377 
        930.402          253960 
        930.478          292543 
         930.63          365864 
        930.633          367290 
        930.782          434171 
        930.931          497302 
         931.08          555390 
        931.229          609689 
        931.379          666520 
        931.528          721391 
        931.677          772747 
        931.788          807697 
        931.814          815567 
        931.826          819155 
        931.838          822705 
        931.888          837175 
        931.988          864441 
        932.188          906623 
        932.389          942742 
        932.589          973118 
        932.789          997754 
        932.989      1.01628e+6 
        933.189      1.03062e+6 
        933.347      1.03894e+6 
        933.375      1.04012e+6 
        933.377      1.04021e+6 
        933.389      1.04068e+6 
        933.403      1.04122e+6 
        933.432      1.04217e+6 
         933.46      1.04302e+6 
        933.542      1.04497e+6 
        933.652      1.04626e+6 
        933.762      1.04601e+6 
        933.872      1.04408e+6 
        933.982       1.0396e+6 
        934.092      1.03215e+6 
        934.202      1.02231e+6 
        934.312      1.00987e+6 
        934.413          996551 
        934.422          995329 
        934.533          978945 
        934.652          958173 
        934.771          934209 
         934.89          907367 
        935.009          877048 
        935.026          872455 
        935.128          845789 
         935.23          820964 
        935.332          794669 
        935.434          766640 
        935.537          737005 
        935.639          705800 
        935.741          673039 
        935.746          671390 
        935.843          638372 
        935.945          601433 
        936.144          523458 
        936.343          439955 
        936.484          375072 
        936.542          346398 
        936.601          316757 
        936.605          314693 
        936.714          256406 
        936.717          254770 
        936.829          195023 
        936.887          167251 
        936.944          148380 
        936.973          144471 
        937.001          143759 
        937.015          143772 
        937.029          143798 
        937.043          143825 
        937.058          143853 
        937.072          143880 
        937.086          143907 
        937.101          143935 
        937.115          143962 
        937.143          144029 
          937.2          148881 
        937.314          195730 
        937.428          257609 
        937.493          293527 
        937.542          319934 
        937.593          346738 
        937.694          397179 
        937.794          444567 
        937.894          489334 
         937.95          513870 
        937.988          530288 
        937.994          532839 
            938          535444 
         938.05          556866 
         938.15          598693 
         938.35          677406 
         938.55          749785 
        938.587          762791 
        938.751          818404 
        938.883          861802 
        938.914          871739 
        939.077          924323 
        939.271          994163 
        939.465      1.05906e+6 
        939.659      1.11963e+6 
        939.854      1.17717e+6 
        940.048      1.23302e+6 
        940.132        1.256e+6 
        940.242      1.28435e+6 
        940.284      1.29417e+6 
        940.436      1.32866e+6 
        940.588      1.36134e+6 
         940.74      1.39209e+6 
        941.045      1.44863e+6 
        941.197      1.47419e+6 
        941.349        1.498e+6 
        941.501      1.51769e+6 
        941.653      1.53608e+6 
        941.958      1.56902e+6 
        942.262      1.59697e+6 
        942.566      1.61787e+6 
        942.693      1.62478e+6 
         942.87      1.63253e+6 
        943.048      1.63802e+6 
        943.225      1.64105e+6 
        943.402      1.64082e+6 
        943.579       1.6377e+6 
        943.756      1.63149e+6 
        943.933       1.6221e+6 
        944.111      1.60868e+6 
        944.288       1.5904e+6 
        944.465      1.56806e+6 
        944.642      1.54157e+6 
        944.819      1.51246e+6 
        944.996      1.48169e+6 
        945.039      1.47371e+6 
        945.173       1.4475e+6 
        945.308      1.41922e+6 
        945.442      1.38915e+6 
        945.576      1.35721e+6 
         945.71       1.3232e+6 
        945.844      1.28705e+6 
        946.112       1.2199e+6 
        946.139      1.21295e+6 
        946.381      1.15009e+6 
        946.394      1.14666e+6 
        946.649      1.07977e+6 
        946.903      1.00868e+6 
        947.108          948799 
        947.158          933769 
        947.208          918479 
        947.308          887035 
        947.509          821307 
        947.709          749970 
        947.735          740291 
        947.909          671638 
        948.083          596877 
        948.257          516569 
        948.317          487481 
        948.431          428570 
        948.546          364965 
         948.66          297238 
        948.727          256846 
        948.761          237049 
        948.771          231140 
        948.774          229372 
        948.777          227609 
        948.827          199807 
        948.835          195831 
        948.893          173139 
        948.922          168598 
        948.951          167923 
        948.966          167952 
         948.98          167982 
        948.994          168012 
        949.009          168044 
        949.023          168075 
        949.037          168105 
        949.052          168137 
        949.066          168167 
        949.095          168233 
        949.153          173715 
         949.23          206638 
        949.258          222750 
        949.269          229009 
         949.28          235589 
         949.33          265374 
         949.36          283844 
         949.43          326942 
          949.5          369143 
         949.64          448805 
        949.781          521866 
        949.795          528752 
        949.879          569998 
        949.921          589935 
        949.963          609846 
        950.131          686187 
        950.299          757265 
        950.467          823317 
        950.635          885408 
        950.719          915438 
        950.804          944897 
        950.888          973755 
        951.056      1.02993e+6 
        951.224      1.08506e+6 
        951.392       1.1392e+6 
        951.728      1.24444e+6 
        951.896      1.29943e+6 
        952.065      1.35357e+6 
        952.233      1.41028e+6 
        952.401      1.47046e+6 
        952.688      1.56976e+6 
        952.737      1.58662e+6 
        952.788      1.60422e+6 
        952.888      1.63865e+6 
        953.089       1.7066e+6 
        953.489      1.84553e+6 
        953.889      1.98591e+6 
         954.29      2.11748e+6 
         954.49       2.1807e+6 
         954.69      2.24261e+6 
         954.89      2.30156e+6 
         955.09      2.35548e+6 
        955.491       2.4582e+6 
        955.768      2.52542e+6 
        955.891        2.552e+6 
        956.014       2.5775e+6 
         956.26      2.63556e+6 
        956.506      2.69144e+6 
        956.999       2.7958e+6 
        957.491      2.89075e+6 
        957.984      2.97646e+6 
        958.476      3.05288e+6 
        958.648      3.07727e+6 
        958.969      3.11908e+6 
        959.289      3.15648e+6 
        959.429      3.17109e+6 
        959.609      3.18843e+6 
        959.929      3.21548e+6 
         960.43      3.24728e+6 
         960.68      3.27131e+6 
         960.93      3.28966e+6 
         961.18      3.30222e+6 
        961.431      3.30913e+6 
        961.681      3.31004e+6 
        961.931      3.30527e+6 
        962.181      3.29493e+6 
        962.431      3.27885e+6 
        962.682      3.25761e+6 
        962.932      3.23069e+6 
        963.182      3.19868e+6 
        963.432      3.16201e+6 
        963.634      3.12928e+6 
        963.682      3.12115e+6 
        963.933       3.0767e+6 
        964.231      3.01848e+6 
        964.529      2.95488e+6 
        964.827      2.88814e+6 
        965.424      2.74525e+6 
         966.02      2.59271e+6 
        966.617      2.43509e+6 
        967.213      2.27006e+6 
        967.588      2.16364e+6 
         967.81      2.09903e+6 
        968.032      2.03303e+6 
        968.476      1.89571e+6 
        968.544      1.87432e+6 
        968.921      1.75196e+6 
        969.109       1.6883e+6 
        969.297      1.62272e+6 
         969.42      1.57825e+6 
        969.485      1.55422e+6 
        969.673      1.48278e+6 
          969.8      1.43314e+6 
        969.927      1.38207e+6 
        970.053      1.32887e+6 
         970.18      1.27392e+6 
        970.306      1.21708e+6 
        970.433       1.1574e+6 
        970.559      1.09478e+6 
        970.686      1.02822e+6 
        970.751          991904 
        970.812          956668 
        970.874          920656 
        970.997          844281 
         971.12          761755 
         971.14          748283 
        971.244          671129 
        971.348          586520 
        971.452          493004 
        971.469          477019 
        971.527          420380 
        971.556          391314 
        971.585          361974 
        971.653          295829 
        971.699          257488 
        971.701          255994 
        971.703          254523 
        971.732          236668 
        971.744          231287 
        971.753          228064 
        971.762          225763 
        971.778          223571 
        971.792          223173 
        971.806          223192 
        971.821          223232 
        971.827          223249 
        971.833          223265 
        971.836          223273 
        971.839          223281 
        971.851          223314 
        971.866          223354 
         971.88          223394 
         971.91          225033 
        971.969          251279 
        972.037          308372 
        972.087          357831 
        972.137          408954 
         972.15          422130 
        972.237          507097 
        972.324          586227 
        972.499          725409 
        972.548          760589 
        972.673          844259 
        972.798          920945 
        972.923          990814 
        973.048       1.0558e+6 
        973.173      1.11575e+6 
        973.298      1.17182e+6 
        973.423      1.22562e+6 
        973.548      1.27657e+6 
        973.601      1.29749e+6 
        973.673       1.3254e+6 
        973.746      1.35292e+6 
         973.89      1.40673e+6 
        974.034      1.45831e+6 
        974.178      1.50783e+6 
        974.466      1.60509e+6 
        974.754      1.69838e+6 
        975.043      1.78653e+6 
        975.331      1.87438e+6 
        975.556      1.93574e+6 
        975.598      1.94718e+6 
        975.619      1.95288e+6 
         975.64      1.95858e+6 
        975.724      1.98142e+6 
        975.892      2.02755e+6 
        976.228      2.11694e+6 
        976.565      2.20808e+6 
        976.901      2.30539e+6 
        977.187      2.39515e+6 
        977.237      2.41173e+6 
        977.574      2.51133e+6 
        977.717      2.55482e+6 
        977.982      2.63981e+6 
        978.246      2.71925e+6 
        978.511      2.80443e+6 
        978.775      2.89882e+6 
        978.908      2.95015e+6 
        979.041      3.00484e+6 
        979.173      3.06386e+6 
        979.255      3.10285e+6 
        979.305      3.12732e+6 
        979.355      3.14844e+6 
        979.455      3.19211e+6 
        979.655      3.28604e+6 
        979.855      3.39229e+6 
        980.055      3.49565e+6 
        980.256      3.58418e+6 
        980.456      3.67987e+6 
        980.856      3.86165e+6 
        980.991      3.91703e+6 
        981.256      4.03255e+6 
        981.657      4.20499e+6 
        981.725      4.23436e+6 
        982.457      4.55459e+6 
        982.823      4.71456e+6 
        983.191      4.87682e+6 
        983.557      5.04879e+6 
        983.923      5.23854e+6 
        984.657      5.61393e+6 
        985.627      6.09017e+6 
        986.123      6.34225e+6 
         986.37      6.46276e+6 
        986.618      6.58377e+6 
        986.866      6.68239e+6 
        987.114      6.75113e+6 
        987.362      6.81741e+6 
         987.61      6.87949e+6 
        987.858       6.9373e+6 
        987.982      6.96532e+6 
