# Koester WD models
# teff = 13000 K (value for the effective temperature for the model. Temperatures are given in K)
# logg = 8.75 log(cm/s2) (value for Log(G) for the model.)
#
# column 1: WAVELENGTH (ANGSTROM), Wavelength in Angstrom
# column 2: FLUX (ERG/CM2/S/A), Flux in erg/cm2/s/A
         899.23           33277 
        900.736         34036.6 
        902.486           34937 
        904.235         35856.9 
        906.227         36929.1 
        907.734         37757.5 
         908.45         38156.5 
        909.241         38601.4 
        910.032         39050.3 
        911.193         39717.9 
        911.613         39961.4 
        911.824           40083 
        911.929         40143.6 
        912.034         40204.2 
        912.139         40743.9 
        912.244         41310.1 
        912.349         41902.9 
        912.454         42528.1 
        912.559         43219.5 
        912.664         43937.1 
         912.77         44671.6 
        912.875           45407 
        912.886         45482.7 
         912.98         46087.2 
        913.085         46542.4 
        913.284         46849.9 
        913.435         46561.5 
        913.483           46554 
        913.531         46624.4 
        913.627         46591.4 
        913.772         45437.5 
        913.818         45355.8 
         913.82         45360.2 
        913.822         45365.2 
        913.872         45632.9 
        913.972         46297.3 
        913.979           46238 
        914.072         44216.3 
        914.165         42890.9 
        914.351         47117.6 
        914.499         41827.2 
        914.537         40963.5 
        914.575         40682.4 
        914.652         42120.3 
        914.804         49815.3 
        914.841         49478.2 
        914.956         42287.1 
        915.071         39407.2 
        915.186         42723.5 
        915.301         53115.8 
        915.416         54240.5 
         915.42         54026.3 
        915.531         43865.1 
        915.609           39613 
        915.643           39083 
        915.677         38952.6 
        915.745           39716 
        915.881         51507.4 
        916.017           66047 
        916.153         60050.9 
        916.289         43276.7 
        916.379         39186.7 
        916.421         39015.4 
        916.425         39014.5 
        916.429         39015.8 
        916.479         39248.2 
         916.58         44627.3 
         916.68         59816.6 
         916.78         76321.5 
         916.88         84495.6 
         916.98         81841.6 
         917.08           68482 
         917.18         51166.5 
        917.182         50834.7 
         917.28           40459 
        917.378         39429.2 
        917.575           51508 
        917.771         91624.5 
        917.967          111543 
        918.163         99059.8 
        918.359         60886.9 
         918.51         40630.5 
        918.556         40119.4 
        918.602           40121 
        918.694         40743.9 
        918.878           69444 
        919.062          112844 
        919.201          136994 
        919.241          141717 
        919.246          142243 
        919.251          142755 
        919.301          146611 
        919.402          149566 
        919.502          146979 
        919.602          138179 
        919.702          123476 
        919.802          103301 
        919.902         80263.3 
        920.002         57158.1 
        920.163         41072.2 
        920.189         41079.8 
        920.202         41087.3 
        920.215         41095.2 
        920.267           41136 
        920.372         46932.9 
        920.476         68196.1 
         920.58         94475.5 
        920.684          120098 
        920.788          143105 
        920.892          162650 
        920.996          177572 
          921.1          188038 
        921.204          194134 
        921.308          196595 
        921.413          194987 
        921.517          189186 
        921.621          178686 
        921.725          162994 
        921.829          144403 
        921.933          122688 
        922.037           97560 
        922.141         70933.4 
        922.245           48760 
        922.294         43284.9 
         922.35         42422.2 
        922.405         42454.2 
        922.515         43426.2 
        922.625         61346.2 
         922.66         69576.9 
        922.735         89223.1 
         922.81          108991 
         922.96          145624 
         923.11          178607 
         923.26          207597 
        923.411          229821 
        923.561          245473 
        923.711          256031 
        923.861          262256 
        924.011          263721 
        924.161          259600 
        924.312          249444 
        924.462          232824 
        924.612          210738 
        924.762          184143 
        924.912          152620 
        925.062          117203 
        925.212         76790.9 
        925.241         69012.3 
        925.363         45949.9 
        925.484         44428.4 
        925.605         46113.2 
        925.726         69495.2 
        925.847          102897 
        925.968          134782 
        926.089          163682 
         926.21          190972 
        926.295          208698 
        926.332          216059 
        926.369          223138 
        926.443          237576 
        926.591          265092 
        926.739          289103 
        926.887          309051 
        927.035          324137 
        927.183          335670 
        927.332          344674 
         927.48          351560 
        927.628          356012 
        927.776          358072 
        927.924          357331 
        927.962          356690 
        928.072          353341 
        928.182          347479 
        928.293          339531 
        928.403          329242 
        928.513          316522 
        928.623          303259 
        928.733          289210 
        928.843          274173 
        928.953          257638 
        928.985          252604 
        929.037          243958 
        929.063          239503 
        929.089          234939 
        929.125          228348 
        929.193          215266 
        929.261          201351 
        929.398          171236 
        929.493          148680 
        929.526          140567 
        929.534          138346 
        929.543          136103 
        929.593          122999 
        929.617          116469 
        929.655          105863 
        929.693         95068.4 
        929.769           73517 
        929.827         59066.7 
        929.883         49622.7 
         929.91         47719.8 
        929.939         47421.7 
        929.954         47428.9 
        929.968         47438.7 
        929.982         47448.4 
        929.996         47457.8 
         930.01         47467.6 
        930.024         47477.3 
        930.038         47487.1 
        930.052         47496.5 
        930.081         47519.7 
        930.137         49805.6 
        930.201         61227.1 
        930.247         72898.5 
        930.249         73452.9 
        930.251         74016.6 
        930.301         88329.3 
        930.326         95323.1 
        930.402          117163 
        930.478          137841 
         930.63          175850 
        930.633          176570 
        930.782          210744 
        930.931          241720 
         931.08          269408 
        931.229          295292 
        931.379          320603 
        931.516          344648 
        931.528          346929 
        931.677          373840 
        931.838          400647 
        931.999          424454 
         932.16          442666 
        932.321          458673 
        932.483          471248 
        932.644          482332 
        932.805          491804 
        932.966          499702 
        933.127          506202 
        933.173          507810 
        933.265          510697 
        933.288          511348 
        933.403          514140 
        933.432          514640 
        933.542          516101 
        933.652          516792 
        933.762          516761 
        933.872          515859 
        933.982          513424 
        934.092          509164 
        934.202          503578 
        934.312          496604 
        934.413          489033 
        934.422          488313 
        934.533          478722 
        934.652          466775 
        934.771          453392 
         934.89          439330 
        935.009          423949 
        935.026          421668 
        935.128          408470 
         935.23          395995 
        935.332          382838 
        935.434          368817 
        935.537          353853 
        935.639          338359 
        935.741          322833 
        935.843          306365 
        935.945          288841 
         935.95          287961 
        936.047          270492 
        936.144          252174 
        936.338          213078 
        936.464          184241 
        936.532          167152 
        936.601          148973 
        936.645          136683 
        936.714          116461 
        936.737          109529 
        936.829         81666.6 
        936.887         65929.5 
        936.944         55027.2 
        936.973         52729.7 
        937.001         52497.6 
        937.015           52508 
        937.029         52518.3 
        937.043           52529 
        937.058         52540.3 
        937.072         52550.7 
        937.086           52561 
        937.101         52572.4 
        937.115           52583 
        937.143         52604.4 
          937.2         55227.9 
        937.314         81910.1 
        937.428          116970 
        937.493          136474 
        937.542          150544 
        937.593          164646 
        937.694          190658 
        937.794          214409 
        937.894          236442 
         937.95          248139 
        937.988          255787 
        937.994          256989 
            938          258224 
         938.05          268370 
         938.15          287947 
         938.25          306863 
         938.35          324985 
         938.45          342248 
         938.55          359049 
        938.587          365430 
        938.751          392630 
        938.883          413603 
        938.914          418407 
        939.077          443649 
        939.271          477714 
        939.465          511665 
        939.659          544862 
        939.854          576583 
        940.048          606836 
        940.242          634237 
        940.436          655990 
         940.52          664997 
         940.63          676457 
         940.74          687472 
        940.961          708869 
        941.181          728950 
        941.401          747253 
        941.621          763024 
        941.841          777271 
        942.062          789828 
        942.282          800717 
        942.397          805435 
        942.502          809259 
        942.559          811153 
        942.722          815718 
        942.884          819067 
        943.048          821175 
        943.211          822042 
        943.373          821379 
        943.536          819302 
        943.698          815790 
        943.861          810826 
        944.023          804436 
        944.187          794361 
        944.349          782203 
        944.512          768358 
        944.674          752898 
        944.691          751186 
        944.837          736414 
        944.845          735535 
        944.999          718909 
        945.153          701090 
        945.308          682128 
        945.462          662424 
        945.616          641918 
         945.77          620581 
        945.924          600057 
        946.078          582857 
        946.232          564993 
        946.387          546568 
        946.541          527590 
        946.849          488244 
        947.108          453530 
        947.156          446901 
        947.157          446763 
        947.158          446625 
        947.208          439581 
        947.308          425127 
        947.509          394524 
        947.709          361421 
        947.735          356879 
        947.909          324706 
        948.083          289248 
        948.257          250294 
        948.317          235648 
        948.431          205480 
        948.546          172128 
         948.66          135403 
        948.727          112632 
        948.761          101228 
        948.771         97793.7 
        948.774         96774.6 
        948.777         95757.9 
        948.827         80300.7 
        948.835         78002.9 
        948.893         65106.7 
        948.922         62328.6 
        948.951         62107.7 
        948.966         62120.6 
         948.98         62132.8 
        948.994         62144.8 
        949.009         62157.7 
        949.023         62169.9 
        949.037         62181.9 
        949.052         62194.7 
        949.066           62207 
        949.095         62231.8 
        949.153           65341 
         949.23         83970.1 
        949.258           92743 
        949.269         96388.8 
         949.28          100186 
         949.33          117311 
         949.36          127734 
         949.43          151563 
          949.5          174226 
         949.64          215978 
        949.781          253059 
        949.795          256562 
        949.879          276809 
        949.921          286476 
        949.963          295953 
        950.131          332327 
        950.299          365823 
        950.467          396808 
        950.635          425824 
        950.719          439898 
        950.804          453539 
        950.888          466888 
        951.056          492866 
        951.224          518181 
        951.392          543024 
        951.728          592115 
        951.896          616095 
        952.065          639512 
        952.233          665185 
        952.401          694436 
        952.688          743408 
        952.737          751833 
        952.788          760548 
        952.888          777554 
        953.089          811112 
        953.489          878245 
        953.689          912526 
        953.889          946659 
        954.089          978688 
         954.29      1.00848e+6 
         954.69      1.06827e+6 
        954.967      1.10936e+6 
         955.09       1.1273e+6 
        955.229      1.14727e+6 
        955.491      1.18452e+6 
        955.752      1.22116e+6 
        956.014      1.25258e+6 
        956.537      1.31861e+6 
        957.061      1.38091e+6 
        957.584      1.43771e+6 
        957.846      1.46405e+6 
        958.108      1.48861e+6 
        958.369      1.51119e+6 
        958.631      1.53202e+6 
        958.892      1.55068e+6 
        959.021       1.5589e+6 
        959.155      1.56692e+6 
        959.289      1.57432e+6 
        959.557       1.5866e+6 
        959.757      1.59407e+6 
        959.825      1.59638e+6 
        960.093      1.60381e+6 
         960.43      1.60917e+6 
        960.766       1.6163e+6 
        961.102      1.61728e+6 
        961.439      1.61236e+6 
        961.775      1.60146e+6 
        962.111      1.58537e+6 
        962.447      1.56425e+6 
        962.784      1.53852e+6 
         963.12      1.50958e+6 
        963.456      1.47846e+6 
        964.027      1.42164e+6 
        964.129      1.41108e+6 
        964.231      1.40029e+6 
        964.435      1.37845e+6 
        964.843      1.33368e+6 
         965.66      1.24237e+6 
        966.477      1.14788e+6 
        966.555       1.1387e+6 
        967.293      1.04868e+6 
        967.663       1.0021e+6 
        968.032          954400 
        968.244          925827 
        968.401          904468 
        968.507          889891 
        968.771          852754 
        969.034          813836 
        969.297          773042 
         969.56          729764 
         969.72          702049 
        969.823          683585 
        969.927          664726 
        970.133          624853 
        970.236          603742 
        970.339          581986 
        970.442          559301 
        970.545          535503 
        970.628          515626 
        970.648          510678 
        970.751          484298 
        970.874          450768 
        970.997          414631 
         971.12          374622 
         971.14          368016 
        971.244          329440 
        971.348          286129 
        971.452          236766 
        971.527          197200 
        971.556          180935 
        971.583          165473 
        971.585          164320 
        971.643          131377 
        971.703          101942 
        971.732         91846.3 
        971.762         85882.7 
        971.778         84710.2 
        971.792         84496.6 
        971.806         84501.9 
        971.821         84518.6 
        971.827         84525.2 
        971.833         84531.8 
        971.836         84535.2 
        971.839         84538.4 
        971.851         84551.6 
        971.866         84568.2 
         971.88         84585.2 
         971.91         85443.8 
        971.969           99957 
        972.037          133124 
        972.087          161783 
        972.137          190651 
         972.15          198011 
        972.237          244185 
        972.324          285974 
        972.499          356951 
        972.548          374484 
        972.673          415337 
        972.798          451893 
        972.923          485034 
        973.048          515350 
        973.173          543404 
        973.298          569781 
        973.423          594823 
        973.548          618526 
        973.601          628303 
        973.673          641350 
        973.746          654117 
         973.89          678904 
        974.034          702416 
        974.178          725064 
        974.466          769417 
        974.754          811750 
        975.043          851796 
        975.331          891656 
        975.556          919365 
        975.598          924514 
        975.619          927090 
         975.64          929666 
        975.724          939983 
        975.892          960778 
        976.228      1.00094e+6 
        976.565      1.04212e+6 
        976.901      1.08601e+6 
        977.187      1.12665e+6 
        977.237      1.13412e+6 
        977.574      1.17942e+6 
        977.717      1.19924e+6 
        978.246      1.27357e+6 
        978.511      1.31205e+6 
        978.775      1.35419e+6 
        979.041      1.40108e+6 
        979.305      1.45405e+6 
        979.569      1.50488e+6 
        979.834      1.56246e+6 
        980.364      1.66929e+6 
        980.893      1.77053e+6 
        981.422      1.86621e+6 
        981.952      1.96429e+6 
        982.098      1.99067e+6 
        982.554      2.07183e+6 
        983.011      2.15853e+6 
        983.054      2.16688e+6 
        983.467      2.24985e+6 
        983.923      2.35205e+6 
        984.836        2.554e+6 
        985.271      2.64451e+6 
        985.945      2.79463e+6 
        986.281      2.87101e+6 
         986.45      2.90869e+6 
        986.618      2.94661e+6 
        986.786       2.9821e+6 
        986.955      3.00359e+6 
        987.124      3.02447e+6 
        987.292      3.04473e+6 
         987.46      3.06474e+6 
        987.628      3.08286e+6 
        987.797      3.10033e+6 
