# Koester WD models
# teff = 13250 K (value for the effective temperature for the model. Temperatures are given in K)
# logg = 8.5 log(cm/s2) (value for Log(G) for the model.)
#
# column 1: WAVELENGTH (ANGSTROM), Wavelength in Angstrom
# column 2: FLUX (ERG/CM2/S/A), Flux in erg/cm2/s/A
         899.23         36589.2 
        900.518           37297 
        901.953         38098.7 
        903.094         38746.5 
        903.794         39148.3 
        904.235         39403.4 
        906.518         40747.4 
         908.45         41917.6 
        909.241         42404.3 
        910.032         42895.6 
        911.193         43626.4 
        911.613         43892.8 
        911.824           44026 
        911.929         44092.3 
        912.034         44158.9 
        912.139           44806 
        912.244         45506.9 
        912.349         46246.1 
        912.454         47033.1 
        912.559         47907.4 
        912.664         48819.7 
         912.77         49759.7 
        912.875         50705.9 
        912.886         50803.3 
         912.98         51573.6 
        913.085         52043.3 
        913.284         51699.9 
        913.435         50961.7 
        913.483         50673.3 
        913.531         50688.3 
        913.627         51065.6 
        913.772         48825.7 
        913.818         48555.8 
         913.82         48560.2 
        913.822         48566.2 
        913.872         49131.4 
        913.972         51303.5 
        913.979         51300.3 
        914.072         48000.4 
        914.165         45812.3 
        914.351         53286.8 
        914.499         45383.1 
        914.537         44194.7 
        914.575         43842.8 
        914.652         45678.1 
        914.804         57971.8 
        914.841         57640.1 
        914.956         46737.5 
        915.071         42881.5 
        915.186         47211.2 
        915.301         62773.7 
        915.416         64861.6 
         915.42         64564.1 
        915.531         49692.8 
        915.609         43384.1 
        915.643         42719.4 
        915.677         42576.1 
        915.745         43490.6 
        915.881         60743.3 
        916.017         80436.4 
        916.153           73043 
        916.289         48975.2 
        916.379         42944.6 
        916.421         42761.2 
        916.425         42761.2 
        916.429         42762.7 
        916.479         43010.3 
         916.58         51027.9 
         916.68         72638.6 
         916.78         93796.6 
         916.88          103983 
         916.98          100881 
         917.08         84016.9 
         917.18         60970.1 
        917.182         60496.1 
         917.28         44723.7 
        917.378         43268.2 
        917.575         61370.4 
        917.771          113193 
        917.967          136945 
        918.163          122243 
        918.359         74346.7 
         918.51         44825.5 
        918.556         44035.1 
        918.602         44043.6 
        918.694         44949.9 
        918.878         85493.4 
        919.062          138972 
        919.201          167304 
        919.241          172702 
        919.246          173302 
        919.251          173886 
        919.301          178255 
        919.402          181578 
        919.502          178674 
        919.602          168744 
        919.702          151555 
        919.802          127613 
        919.902         99414.1 
        920.002         69154.9 
        920.102         47112.3 
        920.163         45081.9 
        920.189         45090.3 
        920.202         45099.1 
        920.215         45107.6 
        920.267         45151.3 
        920.372         54422.8 
        920.476           83879 
         920.58          117092 
        920.684          147686 
        920.788          174640 
        920.892          196722 
        920.996          213700 
          921.1          225363 
        921.204          232295 
        921.308          235184 
        921.413          233350 
        921.517          226747 
        921.621          214819 
        921.725          196788 
        921.829          175891 
        921.933          150607 
        922.037          120593 
        922.141         87156.6 
        922.245         56731.5 
        922.294         48168.5 
         922.35         46554.9 
        922.405         46589.2 
        922.515         48324.6 
        922.625         74458.9 
         922.66         85372.2 
        922.735          110279 
         922.81          134317 
         922.96          177386 
         923.11          214723 
         923.26          247865 
        923.411          273143 
        923.561          291065 
        923.711          302967 
        923.861          309917 
        924.011          311540 
        924.161          306836 
        924.312          295084 
        924.462          275889 
        924.612          250937 
        924.762          220869 
        924.912          185334 
        925.062          143982 
        925.212           94391 
        925.241         84415.2 
        925.363           51656 
        925.484         48740.2 
        925.605         51838.2 
        925.726         84997.4 
        925.847          126915 
        925.968          164835 
        926.089          197955 
         926.21          228746 
        926.295          248705 
        926.332          257128 
        926.369          265176 
        926.443          281551 
        926.591          313239 
        926.739          341111 
        926.887          364309 
        927.035          381537 
        927.183          394832 
        927.332          404951 
         927.48          412617 
        927.628          417577 
        927.776          419754 
        927.924          418630 
        927.962          417816 
        928.072          413807 
        928.182          406984 
        928.293          397732 
        928.403          386001 
        928.513          371676 
        928.623          356750 
        928.733          340813 
        928.843          323713 
        928.953          304574 
        928.985          298759 
        929.037          289037 
        929.063          283971 
        929.089          278750 
        929.125          271257 
        929.193          256335 
        929.261          240657 
        929.398          206677 
        929.493          180982 
        929.526          171609 
        929.534          169012 
        929.543          166379 
        929.593          150872 
        929.617          143138 
        929.655          130391 
        929.693          117158 
        929.769         89758.8 
        929.827         70205.2 
        929.883         56101.6 
         929.91         52657.5 
        929.939           52004 
        929.954         52009.1 
        929.968         52019.7 
        929.982         52030.1 
        929.996         52040.8 
         930.01         52051.2 
        930.024         52061.8 
        930.038         52072.2 
        930.052         52082.9 
        930.081         52110.9 
        930.137         56306.8 
        930.201         73218.9 
        930.247         88912.7 
        930.249         89634.4 
        930.251         90358.8 
        930.301          108748 
        930.326          117455 
        930.402          143990 
        930.478          168466 
         930.63          212004 
        930.633          212809 
        930.782          251325 
        930.931          286386 
         931.08          317731 
        931.229          347168 
        931.379          375543 
        931.528          404631 
        931.788          456232 
        931.814          461022 
        931.826          463209 
        931.838          465377 
        931.888          474258 
        931.988          491138 
        932.188          517690 
        932.389          538987 
        932.589          555647 
        932.789          569615 
        932.989          580855 
        933.189          589529 
        933.347          594625 
        933.375          595357 
        933.377          595407 
        933.389          595706 
        933.403          596039 
        933.432          596554 
         933.46          597000 
        933.542          597974 
        933.652          598492 
        933.762          598150 
        933.872          596790 
        933.982          593686 
        934.092          588521 
        934.202          581826 
        934.312          573579 
        934.413          564752 
        934.422          563916 
        934.533          552898 
        934.652          539286 
        934.771          524109 
         934.89          508193 
        935.009          491144 
        935.026          488628 
        935.128          473988 
         935.23          459920 
        935.332          445000 
        935.434          429248 
        935.537          412636 
        935.639          395300 
        935.741          377805 
        935.843          359389 
        935.945          339587 
         935.95          338585 
        936.047          318985 
        936.144          298504 
        936.338          254659 
        936.464          222134 
        936.532          202664 
        936.601          181617 
        936.645          167109 
        936.714          142996 
        936.737          134513 
        936.829         99417.3 
        936.887         78313.6 
        936.944         62198.5 
        936.973         58045.3 
        937.001         57529.5 
        937.015         57538.6 
        937.029         57550.2 
        937.043         57561.5 
        937.058         57573.8 
        937.072         57585.4 
        937.086         57596.7 
        937.101           57609 
        937.115         57620.3 
        937.143         57645.4 
          937.2         62423.4 
        937.314           99684 
        937.428          143608 
        937.493          166904 
        937.542          183509 
        937.593          199891 
        937.694          229526 
        937.794          256375 
        937.894          281061 
         937.95          294203 
        937.988          302827 
        937.994          304176 
            938          305559 
         938.05          316949 
         938.15          338733 
         938.25          360221 
         938.45          399874 
         938.65          437655 
        938.788          462534 
        938.809          466269 
        938.851          473677 
        938.914          484635 
        938.924          486438 
         939.04          505800 
        939.155          527511 
        939.271          549622 
        939.502          593918 
        939.733          637388 
        939.965          678999 
        940.081          698898 
        940.196          718121 
        940.312          733939 
        940.427          748607 
        940.576          766655 
        940.658          776168 
         940.74          785401 
        940.905          803290 
        941.069          820405 
        941.233          836678 
        941.397          851717 
        941.561          865157 
        941.725          877620 
        941.889          889046 
        942.054          899403 
        942.218          908816 
        942.382          916802 
        942.546          923427 
        942.701          928463 
         942.71          928718 
        942.874          932601 
        943.048          935139 
        943.221          935639 
        943.394          934178 
        943.567          930976 
         943.74          926028 
        943.913          919362 
        944.086          910189 
         944.26          896595 
        944.433          880739 
        944.606          862892 
        944.779          843273 
        944.943          823814 
        944.952          822705 
        945.125          800343 
        945.308          775028 
         945.49          748843 
        945.672          721841 
        945.854          693962 
        946.036          671057 
        946.218          648170 
        946.401          624514 
        946.583          599727 
        946.736          577934 
        946.765          573944 
        946.947          548211 
        947.158          516720 
        947.264          500270 
        947.369          483224 
        947.476          465440 
        947.581          446678 
        947.687          426930 
        947.792          406095 
        947.898          383768 
        947.923          378197 
        948.003          360429 
        948.083          341714 
        948.243          301851 
        948.261          297044 
        948.403          256415 
        948.546          209219 
        948.599          189614 
        948.661          165263 
        948.688          154105 
        948.777          116111 
        948.835         92418.4 
        948.893         73481.5 
        948.922           68472 
        948.951         67980.3 
        948.966         67994.1 
         948.98         68007.3 
        948.994         68020.5 
        949.009         68034.3 
        949.023         68047.5 
        949.037         68060.7 
        949.052         68074.9 
        949.066         68087.7 
        949.095         68115.4 
        949.153         73743.5 
         949.23          100529 
        949.258          112096 
        949.269          116863 
         949.28          121689 
         949.33          143448 
         949.36          156280 
         949.43          185027 
          949.5          211728 
         949.64          259710 
        949.781          301471 
        949.795          305390 
        949.879          328017 
        949.921          338868 
        949.963          349524 
        950.131          390129 
        950.299          427941 
        950.467          462552 
        950.635          494823 
        950.719          510220 
        950.804          525186 
        950.888          539845 
        951.056          568405 
        951.224          596045 
        951.392          623418 
        951.728          677412 
        952.064          729029 
        952.233          756989 
        952.401          789080 
         952.57          821049 
        952.738          853219 
        953.075          917568 
        953.413          981368 
         953.75      1.04678e+6 
        953.918      1.07956e+6 
        954.087       1.1101e+6 
        954.256      1.13856e+6 
        954.425       1.1673e+6 
        954.593      1.19636e+6 
        954.762      1.22572e+6 
        954.859      1.24257e+6 
         954.93      1.25482e+6 
        955.099       1.2837e+6 
        955.437       1.3416e+6 
        955.725      1.39095e+6 
        956.014      1.43425e+6 
        956.303      1.47703e+6 
        956.592      1.51901e+6 
        957.169      1.59998e+6 
        957.458      1.63849e+6 
        957.747      1.67521e+6 
        958.036      1.70974e+6 
        958.324      1.74107e+6 
        958.514      1.76005e+6 
        958.613      1.76933e+6 
        958.901      1.79413e+6 
        959.289      1.82141e+6 
        959.676      1.83965e+6 
        959.697      1.84044e+6 
        960.063      1.85129e+6 
         960.43      1.85554e+6 
        960.796      1.85507e+6 
        961.162      1.84764e+6 
        961.529      1.83374e+6 
        961.895      1.81345e+6 
        962.261      1.78752e+6 
        962.628      1.75611e+6 
        962.994      1.72018e+6 
         963.36       1.6816e+6 
        963.727       1.6403e+6 
        963.955      1.61389e+6 
        964.093      1.59763e+6 
        964.231      1.58085e+6 
        964.507      1.54695e+6 
         965.06      1.47726e+6 
        966.165       1.3341e+6 
        966.507      1.28853e+6 
        967.269      1.18486e+6 
        967.651      1.13139e+6 
        968.032      1.07703e+6 
        968.292      1.03839e+6 
        968.413      1.02014e+6 
        968.543      1.00028e+6 
        968.795          961045 
        969.046          920440 
        969.297          878169 
        969.548          833399 
        969.672          810459 
        969.799          786039 
        969.927          760627 
        970.054          734206 
        970.181          706670 
        970.308          677799 
        970.435          647555 
        970.504          630464 
        970.562          615661 
        970.689          581201 
        970.874          526154 
        971.059          463756 
        971.142          432814 
        971.245          390211 
        971.348          342104 
        971.451          286513 
        971.523          242143 
        971.554          221522 
        971.585          199983 
        971.591          195872 
        971.644          157832 
        971.647          155789 
        971.703          119240 
        971.732          104658 
        971.762         95116.7 
        971.778         92899.4 
        971.792         92331.4 
        971.806         92295.9 
        971.821         92313.8 
        971.827           92321 
        971.833           92328 
        971.836         92331.7 
        971.839         92335.2 
        971.851         92349.6 
        971.866         92367.9 
         971.88           92393 
         971.91         94253.7 
        971.969          116275 
        972.037          160703 
        972.087          196860 
        972.137          231851 
         972.15          240584 
        972.237          294648 
        972.324          342132 
        972.499          421511 
        972.548          441054 
        972.673          486771 
        972.798          527605 
        972.923          564604 
        973.048          598244 
        973.173          629305 
        973.298          657994 
        973.351          669725 
        973.423          685260 
        973.548          711247 
        973.746          749939 
        973.943          786630 
         974.14          820992 
        974.337          854136 
        974.731          918042 
        975.126          977846 
          975.4      1.01798e+6 
         975.52      1.03413e+6 
         975.64      1.05032e+6 
         975.88      1.08308e+6 
        976.361       1.1469e+6 
        976.601      1.17972e+6 
        976.841       1.2142e+6 
        977.081      1.25103e+6 
        977.321      1.29006e+6 
        977.802      1.36244e+6 
        978.042      1.40079e+6 
        978.282      1.43771e+6 
        978.522      1.47723e+6 
        978.762      1.52048e+6 
        979.003      1.56822e+6 
        979.181      1.60698e+6 
        979.243      1.62133e+6 
        979.305      1.63618e+6 
        979.429      1.66242e+6 
        979.553      1.69007e+6 
        979.801      1.75059e+6 
        979.925      1.78439e+6 
        980.049      1.81367e+6 
        980.173      1.83925e+6 
        980.298      1.86584e+6 
        980.422      1.89355e+6 
        980.546      1.92252e+6 
        980.794      1.97559e+6 
        981.042      2.02402e+6 
         981.29      2.07475e+6 
        981.636      2.14498e+6 
        981.787      2.17623e+6 
        982.207        2.262e+6 
        982.779      2.37846e+6 
        983.066      2.43937e+6 
        983.351      2.50216e+6 
        983.637      2.56985e+6 
        983.923      2.64186e+6 
        984.496      2.78281e+6 
         984.66      2.82348e+6 
         985.64      3.05246e+6 
        986.129      3.17577e+6 
        986.373      3.23543e+6 
        986.618      3.29575e+6 
        986.863      3.34558e+6 
