# Koester WD models
# teff = 14750 K (value for the effective temperature for the model. Temperatures are given in K)
# logg = 8.75 log(cm/s2) (value for Log(G) for the model.)
#
# column 1: WAVELENGTH (ANGSTROM), Wavelength in Angstrom
# column 2: FLUX (ERG/CM2/S/A), Flux in erg/cm2/s/A
         899.23          191614 
         899.35          191904 
        899.589          192484 
        900.068          193650 
        901.028          195999 
        901.657          197552 
        902.947          200764 
        904.235          204018 
        904.384          204399 
        906.813          210652 
         908.45          214953 
        909.241          217056 
        910.032          219173 
        911.193          222307 
        911.613          223443 
        911.824          224008 
        911.929          224290 
        912.034          224570 
        912.139          228357 
        912.244          232232 
        912.349          236187 
        912.454          240221 
        912.559          244317 
        912.664          248457 
         912.77          252706 
        912.875          256886 
        912.886          257314 
         912.98          260747 
        913.085          263753 
        913.284          267692 
        913.339          267971 
        913.435          268288 
        913.483          269005 
        913.531          269654 
        913.625          269371 
        913.724          267301 
        913.822          266937 
        913.871          267576 
        914.018          264712 
        914.165          254379 
        914.312          267268 
        914.343          268684 
        914.459          251103 
        914.575          234199 
        914.692          255456 
        914.808          277834 
        914.924          250943 
        915.009          221622 
         915.04          215734 
        915.071          213980 
        915.133          222976 
        915.257          274789 
        915.381          301062 
        915.505          254486 
        915.609          208674 
        915.617          206708 
         915.63          203510 
        915.643          201340 
        915.677          198915 
        915.745          209759 
        915.881          285864 
        916.017          347086 
        916.153          322510 
        916.289          235821 
        916.379          194498 
        916.421          189463 
        916.425          189379 
        916.429          189357 
        916.479          194884 
         916.58          245313 
         916.68          326012 
         916.78          394468 
         916.88          425981 
         916.98          415008 
         917.08          362948 
         917.18          281139 
        917.182          279281 
         917.28          205540 
        917.378          183933 
        917.575          283735 
        917.771          458478 
        917.967          537426 
        918.163          488530 
        918.359          329437 
         918.51          199128 
        918.556          185165 
        918.602          182515 
        918.694          199652 
        918.878          369555 
        919.062          545415 
        919.201          637159 
        919.241          654881 
        919.246          656825 
        919.251          658717 
        919.301          673143 
        919.402          684327 
        919.502          675012 
        919.602          641730 
        919.702          585866 
        919.802          506789 
        919.902          413588 
        920.002          309090 
        920.102          209965 
        920.165          186372 
        920.189          184722 
        920.202          184458 
        920.215          184404 
        920.265          186620 
        920.366          243490 
        920.466          351167 
        920.566          457378 
        920.666          556703 
        920.766          643298 
        920.866          715780 
        920.966          772141 
        921.066          812359 
        921.166          838230 
        921.266          850753 
        921.367          851372 
        921.467          838592 
        921.567          811879 
        921.667          769354 
        921.767          710465 
        921.867          638928 
        921.967          553951 
        922.067          454409 
        922.167          345264 
        922.267          234640 
        922.331          193724 
        922.368          189440 
        922.405          189165 
        922.479          194103 
        922.627          330863 
         922.67          379272 
         922.74          457384 
        922.775          494424 
         922.81          531265 
         922.95          663784 
         923.09          777161 
         923.23          873130 
        923.371          949078 
        923.511      1.00644e+6 
        923.651      1.04709e+6 
        923.791       1.0726e+6 
        923.931      1.08448e+6 
        924.071      1.08242e+6 
        924.211      1.06317e+6 
        924.352      1.02606e+6 
        924.492          969719 
        924.632          896532 
        924.772          808809 
        924.912          701103 
        925.052          575672 
        925.192          423936 
        925.333          255400 
        925.434          197054 
        925.462          196813 
        925.473          196835 
        925.484          196861 
        925.534          197313 
        925.634          255324 
        925.734          377252 
        925.834          494942 
        925.934          601879 
        926.034          695860 
        926.134          781760 
        926.232          859251 
        926.234          860715 
        926.301          908055 
        926.335          931840 
        926.369          954714 
        926.505      1.04534e+6 
        926.641      1.12708e+6 
        926.777      1.19696e+6 
        926.913      1.25652e+6 
        927.049      1.30269e+6 
        927.185       1.3409e+6 
        927.322      1.37164e+6 
        927.458      1.39589e+6 
        927.594      1.41175e+6 
         927.73      1.42144e+6 
        927.866      1.42372e+6 
        928.002       1.4187e+6 
        928.006      1.41843e+6 
        928.094      1.40804e+6 
        928.138      1.40076e+6 
        928.182      1.39227e+6 
        928.359      1.34636e+6 
        928.535      1.27964e+6 
        928.711      1.20046e+6 
        928.887      1.11472e+6 
        928.985      1.06203e+6 
        929.037       1.0325e+6 
        929.063      1.01717e+6 
        929.089      1.00139e+6 
        929.125          978628 
        929.193          933056 
        929.261          885166 
        929.398          777214 
        929.493          692819 
        929.525          662499 
        929.534          653762 
        929.543          644928 
        929.593          593491 
        929.617          567453 
        929.655          525010 
        929.693          480535 
        929.769          386287 
        929.827          310454 
        929.883          244308 
         929.91          221026 
        929.939          209943 
        929.954          208850 
        929.968          208706 
        929.982          208729 
        929.996          208766 
         930.01          208804 
        930.024          208842 
        930.038          208880 
        930.052          208933 
        930.081          210329 
        930.137          245102 
        930.201          322356 
        930.247          383268 
        930.249          385923 
        930.251          388580 
        930.301          452848 
        930.326          481801 
        930.402          570592 
        930.478          652191 
         930.63          795125 
        930.633          797741 
        930.782          919679 
        930.931      1.02751e+6 
         931.08      1.12367e+6 
        931.229      1.21353e+6 
        931.379      1.30587e+6 
        931.516      1.39071e+6 
        931.677      1.48783e+6 
        931.838      1.57509e+6 
        931.999      1.65194e+6 
         932.16      1.70931e+6 
        932.321       1.7596e+6 
        932.483      1.80151e+6 
        932.644      1.83868e+6 
        932.805      1.87006e+6 
        932.966      1.89588e+6 
        933.127      1.91717e+6 
        933.173      1.92244e+6 
        933.265      1.93191e+6 
        933.288      1.93403e+6 
        933.403      1.94319e+6 
        933.432      1.94501e+6 
        933.542      1.95056e+6 
        933.652      1.95361e+6 
        933.762      1.95422e+6 
        933.872      1.95202e+6 
        933.982      1.94501e+6 
        934.092      1.93219e+6 
        934.202      1.91516e+6 
        934.312      1.89367e+6 
        934.413      1.87036e+6 
        934.422      1.86817e+6 
        934.533      1.83888e+6 
        934.652      1.80191e+6 
        934.771      1.75927e+6 
         934.89      1.71205e+6 
        935.009       1.6597e+6 
        935.026      1.65182e+6 
        935.128       1.6066e+6 
         935.23      1.56538e+6 
        935.332      1.52133e+6 
        935.434      1.47459e+6 
        935.537      1.42511e+6 
        935.639      1.37286e+6 
        935.741      1.31892e+6 
        935.746      1.31622e+6 
        935.843      1.26212e+6 
        935.945       1.2011e+6 
        936.144       1.0732e+6 
        936.343          931853 
        936.484          813867 
        936.542          758918 
        936.601          700104 
        936.605          695853 
        936.717          568657 
        936.829          424602 
        936.894          333207 
        936.938          274558 
        936.941          271148 
        936.944          267839 
        936.973          239486 
        936.987          232063 
        936.994          230055 
        937.001          229049 
        937.015          228483 
        937.029          228477 
        937.043          228518 
        937.058          228561 
        937.072          228602 
        937.086          228643 
        937.101          228686 
        937.115          228728 
        937.143          229463 
         937.15          230512 
        937.186          253205 
        937.199          267603 
         937.25          334664 
        937.314          425673 
        937.341          463862 
        937.442          591772 
        937.543          707729 
        937.645          810581 
        937.746          901599 
        937.847          983595 
        937.896       1.0206e+6 
        937.948      1.05889e+6 
            938      1.09605e+6 
        938.104      1.16889e+6 
        938.208      1.23896e+6 
        938.312      1.30634e+6 
        938.416      1.37005e+6 
         938.52      1.43155e+6 
        938.543      1.44509e+6 
        938.729      1.55137e+6 
        938.914      1.65196e+6 
        938.927      1.65879e+6 
        939.099      1.75297e+6 
        939.271      1.85896e+6 
        939.443      1.96002e+6 
        939.615      2.05657e+6 
        939.788      2.14767e+6 
         939.96      2.23723e+6 
        940.132      2.32193e+6 
        940.304      2.39589e+6 
        940.476      2.46129e+6 
        940.556      2.49064e+6 
        940.648      2.52354e+6 
         940.74      2.55551e+6 
        940.925      2.62137e+6 
        941.109       2.6835e+6 
        941.293      2.74202e+6 
        941.477      2.79241e+6 
        941.661      2.83762e+6 
        941.845      2.87931e+6 
         942.03      2.91722e+6 
        942.214      2.95137e+6 
        942.398      2.97985e+6 
        942.485      2.99149e+6 
        942.582      3.00319e+6 
        942.766      3.02145e+6 
        943.048      3.03892e+6 
        943.188      3.04269e+6 
        943.329      3.04246e+6 
        943.469       3.0384e+6 
         943.61      3.03052e+6 
         943.75       3.0188e+6 
        943.891      3.00322e+6 
        944.031      2.98377e+6 
        944.173      2.95596e+6 
        944.313      2.92304e+6 
        944.454      2.88552e+6 
        944.594      2.84357e+6 
        944.725      2.80068e+6 
        944.735      2.79723e+6 
         944.87      2.75273e+6 
        945.016      2.70138e+6 
        945.161      2.64578e+6 
        945.308      2.58607e+6 
        945.454      2.52295e+6 
        945.599      2.45651e+6 
        945.745      2.38672e+6 
         945.89      2.31513e+6 
        946.036      2.25607e+6 
        946.181      2.19556e+6 
        946.473      2.07268e+6 
        946.764      1.94348e+6 
        946.952      1.85702e+6 
        947.055      1.80802e+6 
        947.158      1.75837e+6 
        947.364       1.6541e+6 
        947.468      1.59931e+6 
        947.571      1.54237e+6 
        947.674      1.48264e+6 
        947.777      1.42041e+6 
         947.88      1.35387e+6 
        947.883      1.35187e+6 
        947.983      1.28439e+6 
        948.083      1.21306e+6 
        948.183       1.1378e+6 
        948.283      1.05683e+6 
        948.383          966985 
        948.421          930072 
        948.483          865798 
        948.546          796711 
        948.563          776727 
         948.67          641422 
        948.777          489152 
        948.843          385656 
        948.875          335560 
        948.884          322604 
        948.893          310694 
        948.922          276800 
        948.935          268636 
        948.943          266330 
        948.951          265496 
        948.966          265310 
         948.98          265353 
        948.994          265399 
        949.009          265448 
        949.023          265493 
        949.037          265539 
        949.052          265589 
        949.066          265635 
        949.095          265968 
        949.153          311677 
         949.23          430024 
        949.258          474695 
        949.269          491961 
         949.28          509265 
         949.33          582492 
         949.36          624530 
         949.43          718080 
          949.5          805206 
         949.64          958776 
        949.781      1.08978e+6 
        949.795       1.1019e+6 
        949.879      1.17151e+6 
        949.921       1.2049e+6 
        949.963      1.23771e+6 
        950.131      1.36223e+6 
        950.299      1.47823e+6 
        950.467      1.58522e+6 
        950.635      1.68596e+6 
        950.719      1.73432e+6 
        950.804      1.78169e+6 
        950.888      1.82828e+6 
        951.056      1.91886e+6 
        951.392      2.09492e+6 
        951.728      2.26444e+6 
        951.896      2.35027e+6 
        952.065      2.43555e+6 
        952.233      2.52836e+6 
        952.401      2.63217e+6 
        952.569      2.73432e+6 
        952.688      2.80582e+6 
        952.737      2.83537e+6 
        952.788      2.86597e+6 
        952.888      2.92586e+6 
        953.089      3.04395e+6 
        953.489      3.28802e+6 
        953.889      3.54529e+6 
         954.29      3.79234e+6 
         954.69      4.03776e+6 
        954.967      4.20402e+6 
         955.09      4.27464e+6 
        955.228      4.35359e+6 
        955.491      4.50058e+6 
        955.752      4.64381e+6 
        956.014      4.76831e+6 
        956.275      4.88725e+6 
        956.537      5.00211e+6 
        957.061      5.22045e+6 
        957.584      5.42148e+6 
        958.108       5.6008e+6 
        958.631      5.75841e+6 
        959.021      5.85869e+6 
        959.155      5.88951e+6 
        959.289      5.91838e+6 
        959.557      5.96793e+6 
        959.757      5.99934e+6 
        959.825      6.00918e+6 
        960.093      6.04238e+6 
         960.43      6.07081e+6 
        960.766      6.09271e+6 
        961.102      6.09796e+6 
        961.439      6.08662e+6 
        961.775      6.05715e+6 
        962.111      6.01119e+6 
        962.447      5.94788e+6 
        962.784      5.86903e+6 
         963.12      5.77302e+6 
        963.456      5.66341e+6 
        963.793      5.54086e+6 
        964.027      5.44985e+6 
        964.129      5.40819e+6 
        964.231      5.36531e+6 
        964.435      5.27879e+6 
        964.843      5.09789e+6 
        964.921      5.06211e+6 
        965.252       4.9089e+6 
         965.66      4.71176e+6 
        966.477      4.31391e+6 
        966.767      4.17172e+6 
          967.4      3.86237e+6 
        968.032      3.54975e+6 
        968.348      3.38918e+6 
        968.665      3.22607e+6 
        968.668      3.22447e+6 
        968.981      3.05791e+6 
        968.983      3.05711e+6 
        969.297      2.88421e+6 
        969.611      2.70164e+6 
        969.876      2.53916e+6 
        969.927      2.50703e+6 
        969.977       2.4744e+6 
        970.077      2.40784e+6 
        970.277      2.26842e+6 
        970.477      2.11911e+6 
         970.48      2.11679e+6 
        970.677      1.95642e+6 
        970.874      1.77843e+6 
        971.071      1.57931e+6 
         971.19      1.44283e+6 
        971.269      1.34069e+6 
        971.348      1.22626e+6 
        971.427      1.09612e+6 
        971.467      1.02378e+6 
        971.506          947998 
        971.585          779256 
        971.644          642581 
        971.703          501254 
        971.732          437062 
        971.762          382410 
        971.778          362279 
        971.792          352059 
        971.806          348965 
        971.821          348868 
        971.827          348890 
        971.833          348915 
        971.836          348927 
        971.839          348940 
        971.851          348987 
        971.866          349062 
         971.88          350376 
         971.91          374415 
        971.969          488826 
        972.037          652515 
        972.087          769599 
        972.137          881031 
         972.15          908448 
        972.237      1.07901e+6 
        972.324      1.22675e+6 
        972.499      1.46733e+6 
        972.548      1.52564e+6 
        972.673      1.66115e+6 
        972.798       1.7831e+6 
        972.923      1.89447e+6 
        973.048      1.99711e+6 
        973.173      2.09218e+6 
        973.298      2.18087e+6 
        973.423      2.26556e+6 
        973.548      2.34598e+6 
        973.601      2.37897e+6 
        973.673      2.42309e+6 
        973.746       2.4664e+6 
         973.89      2.55062e+6 
        974.034      2.63141e+6 
        974.178      2.70873e+6 
        974.466      2.85984e+6 
        974.754      3.00573e+6 
        975.043       3.1447e+6 
        975.331      3.28447e+6 
        975.556       3.3823e+6 
        975.598      3.40068e+6 
        975.619      3.40985e+6 
         975.64      3.41906e+6 
        975.724        3.456e+6 
        975.892      3.53071e+6 
        976.228      3.67591e+6 
        976.565      3.82505e+6 
        976.901      3.98612e+6 
        977.237       4.1649e+6 
        977.574      4.33515e+6 
         977.91      4.51639e+6 
        978.246       4.6958e+6 
        978.414      4.79087e+6 
        978.582      4.89127e+6 
         978.75      4.99978e+6 
        978.919      5.11753e+6 
        979.087      5.24605e+6 
        979.105      5.26053e+6 
        979.205      5.34369e+6 
        979.255      5.38714e+6 
        979.305      5.43207e+6 
        979.505      5.59376e+6 
        979.705      5.77217e+6 
        979.905      5.97386e+6 
        980.105      6.15271e+6 
        980.306      6.31847e+6 
        980.506       6.4976e+6 
        980.706      6.68038e+6 
        980.906      6.83083e+6 
        981.106      6.98646e+6 
        981.506      7.30559e+6 
        982.307      7.94506e+6 
        982.707      8.26365e+6 
