# Koester WD models
# teff = 14750 K (value for the effective temperature for the model. Temperatures are given in K)
# logg = 9.5 log(cm/s2) (value for Log(G) for the model.)
#
# column 1: WAVELENGTH (ANGSTROM), Wavelength in Angstrom
# column 2: FLUX (ERG/CM2/S/A), Flux in erg/cm2/s/A
         899.23          298969 
        904.235          317411 
         908.45          333621 
        909.241          336732 
        910.032          339864 
        911.193          344485 
        911.613          346160 
        911.824          346992 
        911.929          347407 
        912.034          347818 
        912.139          351296 
        912.244          354789 
        912.349          358296 
        912.454          361808 
        912.559          365317 
        912.664          368814 
         912.77          372282 
        912.875          375681 
        912.886          376030 
        913.037          380698 
        913.085          382128 
        913.284          387682 
        913.531          393466 
        913.649          395247 
        913.736          396953 
        913.779          397675 
        913.822          398275 
        913.994          397820 
        914.165          399344 
        914.336          396774 
        914.439          393792 
        914.507          392140 
        914.575          391823 
        914.712          393805 
        914.848          389152 
        914.897          383544 
        914.984          374384 
        915.071          370023 
        915.245          387041 
        915.419          386494 
        915.544          356744 
        915.594          345764 
        915.609          342666 
        915.643          338789 
        915.677          338104 
        915.745          346273 
        915.881          389548 
        916.017          422186 
        916.153          401945 
        916.289          343957 
        916.379          315736 
        916.421          311508 
        916.425          311464 
        916.429          311485 
        916.479          317238 
         916.58          354947 
         916.68          412730 
         916.78          463485 
         916.88          488273 
         916.98          474311 
         917.08          428633 
         917.18          363130 
        917.182          361839 
         917.28          306711 
        917.378          287321 
        917.575          368647 
        917.771          517392 
        917.967          590739 
        918.163          539166 
        918.359          388775 
         918.51          289070 
        918.556          276050 
        918.602          272155 
        918.694          289906 
        918.878          428102 
        919.062          596991 
        919.201          688772 
        919.241          707207 
        919.246          709215 
        919.251          711153 
        919.301          726295 
        919.402          737728 
        919.502          727747 
        919.602          691116 
        919.702          630700 
        919.802          551481 
        919.902          458698 
        920.002          364082 
        920.102          290377 
        920.165          270258 
        920.189          267378 
        920.202          266761 
        920.215          266564 
        920.265          270610 
        920.366          315133 
        920.466          400606 
        920.566          501508 
        920.666          603930 
        920.766          694116 
        920.866          775612 
        920.966          838648 
        921.066          886281 
        921.166          918112 
        921.266          932890 
        921.367          933069 
        921.467          917125 
        921.567          883152 
        921.667          833091 
        921.767          767648 
        921.867          686162 
        921.967          596183 
        922.067          494593 
        922.167          389460 
        922.267          304121 
        922.331          274925 
        922.368          269934 
        922.405          268977 
        922.479          275448 
        922.627          377761 
         922.67          422459 
         922.74          498052 
        922.775          535026 
         922.81          573334 
         922.95          713606 
         923.09          843624 
         923.23          954887 
        923.371      1.05046e+6 
        923.511      1.12267e+6 
        923.651      1.17455e+6 
        923.791      1.20545e+6 
        923.931      1.21931e+6 
        924.071      1.21539e+6 
        924.211      1.19074e+6 
        924.352      1.14501e+6 
        924.492      1.07661e+6 
        924.632          985291 
        924.772          879234 
        924.912          754727 
        925.052          617119 
        925.192          463796 
        925.333          318529 
        925.434          278918 
        925.462          278129 
        925.473          278079 
        925.484          278099 
        925.534          279273 
        925.634          318912 
        925.734          419569 
        925.834          534306 
        925.934          645233 
        926.034          747928 
        926.134          847413 
        926.232          937542 
        926.234          939277 
        926.301          996783 
        926.335      1.02668e+6 
        926.369      1.05597e+6 
        926.505        1.167e+6 
        926.641      1.26548e+6 
        926.777       1.3511e+6 
        926.913      1.42497e+6 
        927.049      1.48545e+6 
        927.185      1.53518e+6 
        927.322      1.57454e+6 
        927.458       1.6048e+6 
        927.594      1.62448e+6 
         927.73      1.63601e+6 
        927.866      1.63857e+6 
        928.002      1.63185e+6 
        928.006      1.63151e+6 
        928.094       1.6188e+6 
        928.138      1.61002e+6 
        928.182      1.59984e+6 
        928.359      1.54484e+6 
        928.535      1.46584e+6 
        928.711      1.36542e+6 
        928.887      1.25446e+6 
        928.985      1.18785e+6 
        929.037      1.15033e+6 
        929.063      1.13079e+6 
        929.089      1.11082e+6 
        929.125      1.08182e+6 
        929.193      1.02491e+6 
        929.261          966743 
        929.398          840907 
        929.493          744991 
        929.525          711652 
        929.534          702181 
        929.543          692577 
        929.593          637593 
        929.617          610597 
        929.655          566894 
        929.693          521888 
        929.769          430678 
        929.827          365166 
        929.883          315846 
         929.91          301823 
        929.939          295273 
        929.954          294419 
        929.968          294166 
        929.982          294155 
        929.996          294196 
         930.01          294245 
        930.024          294300 
        930.038          294362 
        930.052          294478 
        930.081          295801 
        930.137          316852 
        930.201          375317 
        930.247          428410 
        930.249          430813 
        930.251          433213 
        930.301          494688 
        930.326          523462 
        930.402          614081 
        930.478          700453 
         930.63          861129 
        930.633          864202 
        930.782      1.00713e+6 
        930.931      1.14149e+6 
         931.08      1.26284e+6 
        931.229      1.37762e+6 
        931.379      1.49556e+6 
        931.528      1.60902e+6 
        931.677      1.71298e+6 
        931.788      1.78585e+6 
        931.814      1.80227e+6 
        931.826      1.80973e+6 
        931.838       1.8171e+6 
        931.888      1.84708e+6 
        931.988      1.90381e+6 
        932.188      1.99523e+6 
        932.389      2.07369e+6 
        932.589      2.14004e+6 
        932.789      2.19354e+6 
        932.989       2.2332e+6 
        933.189      2.26378e+6 
        933.347      2.28134e+6 
        933.375      2.28381e+6 
        933.377      2.28398e+6 
        933.389      2.28497e+6 
        933.403      2.28608e+6 
        933.432      2.28804e+6 
         933.46      2.28977e+6 
        933.542      2.29363e+6 
        933.652      2.29582e+6 
        933.762      2.29442e+6 
        933.872      2.28923e+6 
        933.982      2.27881e+6 
        934.092      2.26239e+6 
        934.202      2.24094e+6 
        934.312      2.21426e+6 
        934.413      2.18625e+6 
        934.422      2.18372e+6 
        934.533      2.15001e+6 
        934.652      2.10712e+6 
        934.771      2.05766e+6 
         934.89       2.0022e+6 
        935.009      1.94001e+6 
        935.026      1.93057e+6 
        935.128      1.87492e+6 
         935.23      1.82156e+6 
        935.332      1.76506e+6 
        935.434       1.7064e+6 
        935.537      1.64484e+6 
        935.639      1.57951e+6 
        935.741      1.51181e+6 
        935.843      1.44037e+6 
        935.945      1.36328e+6 
         935.95      1.35939e+6 
        936.047      1.28262e+6 
        936.144      1.20123e+6 
        936.338      1.02751e+6 
        936.464          903635 
        936.532          831137 
        936.601          754947 
        936.645          703151 
        936.714          619456 
        936.737          590773 
        936.829          473765 
        936.887          400449 
        936.944          343276 
        936.973          326905 
        937.001          321473 
        937.015          321143 
        937.029          321137 
        937.043          321187 
        937.058          321247 
        937.072          321303 
        937.086          321357 
        937.101          321416 
        937.115          321479 
        937.143          322038 
          937.2          344356 
        937.314          475197 
        937.428          622120 
        937.493          702696 
        937.542          761946 
        937.593          821002 
        937.694          931096 
        937.794      1.03301e+6 
        937.894      1.12893e+6 
         937.95       1.1813e+6 
        937.988      1.21631e+6 
        937.994      1.22179e+6 
            938      1.22729e+6 
         938.05      1.27256e+6 
         938.15      1.35905e+6 
         938.25      1.44303e+6 
         938.45      1.59899e+6 
         938.65      1.74582e+6 
        938.788      1.84164e+6 
        938.809       1.8564e+6 
        938.851      1.88566e+6 
        938.914      1.92912e+6 
        938.924       1.9363e+6 
         939.04      2.01408e+6 
        939.155      2.10036e+6 
        939.271      2.18453e+6 
        939.387      2.26516e+6 
        939.502      2.34308e+6 
        939.618      2.41793e+6 
        939.733      2.48977e+6 
        939.965      2.63511e+6 
        940.081      2.70409e+6 
        940.196      2.77016e+6 
        940.312      2.83018e+6 
        940.427      2.88713e+6 
        940.576      2.95721e+6 
        940.658      2.99402e+6 
         940.74       3.0295e+6 
        940.905      3.09715e+6 
        941.069      3.16013e+6 
        941.233      3.21859e+6 
        941.397      3.27099e+6 
        941.561      3.31586e+6 
        941.725      3.35733e+6 
        941.889      3.39565e+6 
        942.218      3.46307e+6 
        942.546      3.51431e+6 
        942.701       3.5331e+6 
        942.874      3.54994e+6 
        943.048      3.56228e+6 
        943.221      3.56979e+6 
        943.394      3.56979e+6 
        943.567      3.56376e+6 
         943.74      3.55132e+6 
        943.913      3.53219e+6 
        944.086      3.50542e+6 
         944.26       3.4691e+6 
        944.433      3.42478e+6 
        944.606      3.37187e+6 
        944.779      3.31165e+6 
        944.943      3.25324e+6 
        944.952      3.24985e+6 
        945.125      3.18061e+6 
        945.308      3.09994e+6 
         945.49       3.0134e+6 
        945.672      2.91973e+6 
        945.854      2.81789e+6 
        946.218      2.61845e+6 
        946.401      2.51603e+6 
        946.583      2.41401e+6 
        946.736      2.32465e+6 
        946.765      2.30762e+6 
        946.947      2.19734e+6 
        947.158      2.06343e+6 
        947.264      1.99424e+6 
        947.369      1.92325e+6 
        947.476      1.84966e+6 
        947.581      1.77345e+6 
        947.687      1.69484e+6 
        947.792      1.61236e+6 
        947.898      1.52433e+6 
        947.923      1.50249e+6 
        948.003      1.43253e+6 
        948.083      1.35891e+6 
        948.243      1.20302e+6 
        948.261      1.18489e+6 
        948.403       1.0327e+6 
        948.546          862172 
        948.599          792935 
        948.661          709855 
        948.688          672672 
        948.777          547278 
        948.835          464082 
        948.893          395954 
        948.922          376799 
        948.951          371365 
        948.966          371308 
         948.98          371368 
        948.994          371430 
        949.009          371496 
        949.023          371559 
        949.037          371622 
        949.052          371688 
        949.066          371751 
        949.095          372005 
        949.153          397182 
         949.23          492734 
        949.258          534643 
        949.269          550391 
         949.28          566505 
         949.33          638246 
         949.36          680613 
         949.43          777481 
          949.5          871299 
         949.64      1.04433e+6 
        949.781      1.20016e+6 
        949.795      1.21487e+6 
        949.879      1.30195e+6 
        949.921      1.34424e+6 
        949.963       1.3862e+6 
        950.131      1.54485e+6 
        950.299      1.69273e+6 
        950.467      1.82899e+6 
        950.635      1.95952e+6 
        950.719      2.02251e+6 
        950.804      2.08442e+6 
        950.888       2.1454e+6 
        951.056      2.26546e+6 
        951.392      2.49766e+6 
        951.728       2.7228e+6 
        952.065      2.95842e+6 
        952.401      3.20483e+6 
        952.688      3.41212e+6 
        952.737      3.44809e+6 
        952.788      3.48541e+6 
        952.888       3.5582e+6 
        953.089      3.70271e+6 
        953.489      3.99969e+6 
        953.889      4.30166e+6 
         954.29      4.58974e+6 
         954.49      4.72898e+6 
         954.69      4.86564e+6 
         954.89      4.99472e+6 
         955.09       5.1114e+6 
         955.29      5.22497e+6 
        955.491      5.33568e+6 
        955.691      5.44435e+6 
        955.768      5.48494e+6 
        955.891      5.54523e+6 
        956.014      5.60378e+6 
         956.26      5.72678e+6 
        956.753       5.9645e+6 
        957.245      6.19051e+6 
        957.738      6.40194e+6 
        958.156      6.56898e+6 
         958.23      6.59678e+6 
        958.722      6.77104e+6 
        959.006       6.8607e+6 
        959.289      6.94201e+6 
        959.572      7.00581e+6 
        959.855      7.06095e+6 
        960.139      7.10757e+6 
         960.38      7.13952e+6 
        960.414      7.14345e+6 
        960.422      7.14436e+6 
         960.43      7.14524e+6 
         960.48      7.15184e+6 
         960.58      7.16409e+6 
         960.78      7.18454e+6 
         961.18      7.20829e+6 
        961.581      7.20901e+6 
        961.981      7.18467e+6 
        962.381       7.1344e+6 
        962.782      7.05906e+6 
        963.182      6.95561e+6 
        963.582       6.8275e+6 
        963.735      6.77249e+6 
        963.983      6.67529e+6 
        964.231      6.56728e+6 
        964.479      6.45384e+6 
        964.976      6.20587e+6 
        965.472      5.93708e+6 
        965.968      5.64868e+6 
        966.465      5.35227e+6 
        966.883      5.09755e+6 
        966.961      5.04914e+6 
        967.458       4.7401e+6 
        968.032      4.37536e+6 
        968.319      4.18545e+6 
        968.606      3.99243e+6 
        968.894      3.79225e+6 
        969.065       3.6696e+6 
        969.132      3.62075e+6 
        969.181      3.58471e+6 
        969.297       3.4981e+6 
        969.331      3.47275e+6 
        969.529      3.31881e+6 
        969.728      3.15821e+6 
        969.876      3.03325e+6 
        969.927      2.99009e+6 
        969.977      2.94645e+6 
        970.077      2.85735e+6 
        970.277      2.67116e+6 
        970.477      2.47371e+6 
         970.48      2.47066e+6 
        970.677      2.26072e+6 
        970.874      2.03049e+6 
        971.071      1.77421e+6 
         971.19      1.60172e+6 
        971.269      1.47597e+6 
        971.348      1.33941e+6 
        971.427      1.19011e+6 
        971.467       1.1097e+6 
        971.506      1.02716e+6 
        971.585          852195 
        971.644          716424 
        971.703          590098 
        971.732          538164 
        971.762          499859 
        971.778          488659 
        971.792          484826 
        971.806          484333 
        971.821          484412 
        971.827          484443 
        971.833          484478 
        971.836          484493 
        971.839          484509 
        971.851          484575 
        971.866          484657 
         971.88          484855 
         971.91          495514 
        971.969          580145 
        972.037          726349 
        972.087          842751 
        972.137          956800 
         972.15          985571 
        972.237      1.17071e+6 
        972.324      1.33869e+6 
        972.499      1.62936e+6 
        972.548      1.70218e+6 
        972.673      1.87477e+6 
        972.798      2.03089e+6 
        972.923      2.17424e+6 
        973.048      2.30613e+6 
        973.173      2.42981e+6 
        973.298      2.54512e+6 
        973.423       2.6558e+6 
        973.548      2.76196e+6 
        973.601      2.80573e+6 
        973.673      2.86403e+6 
        973.746      2.92137e+6 
         973.89      3.03315e+6 
        974.034       3.1404e+6 
        974.178      3.24369e+6 
        974.466      3.44626e+6 
        974.754      3.64013e+6 
        975.043      3.82454e+6 
        975.331      4.00874e+6 
        975.556      4.13729e+6 
        975.598      4.16129e+6 
        975.619      4.17329e+6 
         975.64      4.18532e+6 
        975.724      4.23367e+6 
        975.892      4.33116e+6 
        976.228      4.51937e+6 
        976.565      4.71333e+6 
        976.901      4.92149e+6 
        977.237      5.15224e+6 
        977.574      5.37247e+6 
         977.91      5.61019e+6 
        978.246      5.84481e+6 
        978.414      5.96991e+6 
        978.582      6.10301e+6 
         978.75      6.24813e+6 
        978.919      6.40769e+6 
        979.087      6.58019e+6 
        979.105      6.59961e+6 
        979.205      6.71173e+6 
        979.255      6.77063e+6 
        979.305      6.83171e+6 
        979.505      7.05231e+6 
        979.705      7.29685e+6 
        979.905      7.57919e+6 
        980.105      7.82678e+6 
        980.306      8.05423e+6 
        980.506      8.29993e+6 
        980.706      8.55069e+6 
        980.906      8.75816e+6 
        981.106       8.9727e+6 
        981.506      9.41092e+6 
        982.307      1.02898e+7 
        982.707      1.07162e+7 
        983.108      1.11497e+7 
        983.508      1.16121e+7 
        983.863      1.20446e+7 
        983.893       1.2082e+7 
        983.908      1.21008e+7 
        983.923      1.21196e+7 
        983.983      1.21983e+7 
        984.103      1.23484e+7 
        984.344      1.26371e+7 
        984.824      1.32242e+7 
        984.951      1.33713e+7 
        985.785      1.43514e+7 
