# Koester WD models
# teff = 14250 K (value for the effective temperature for the model. Temperatures are given in K)
# logg = 9 log(cm/s2) (value for Log(G) for the model.)
#
# column 1: WAVELENGTH (ANGSTROM), Wavelength in Angstrom
# column 2: FLUX (ERG/CM2/S/A), Flux in erg/cm2/s/A
         899.23          138682 
        904.235          148000 
         908.45          156231 
        909.241          157815 
        910.032          159411 
        911.193          161774 
        911.613          162632 
        911.824          163060 
        911.929          163273 
        912.034          163485 
        912.139          165771 
        912.244          168180 
        912.349          170641 
        912.454          173155 
        912.559          175706 
        912.664          178282 
         912.77          180864 
        912.875          183397 
        912.886          183658 
        913.085          187816 
        913.284          191083 
        913.339          191563 
        913.435          192452 
        913.483          193157 
        913.531          193619 
        913.625          193530 
        913.724          193322 
        913.822          194107 
        913.871          194072 
        914.018          191186 
        914.165          188771 
        914.343          191239 
        914.459          183173 
        914.575          176666 
        914.692          185603 
        914.808          193528 
        914.924          179183 
        915.009          165652 
         915.04          163067 
        915.071          162303 
        915.133          166656 
        915.257          191835 
        915.381          205185 
        915.505          177702 
        915.609          155458 
        915.617          154625 
         915.63          153162 
        915.643          152116 
        915.677          151007 
        915.745          156314 
        915.881          196432 
        916.017          233499 
        916.153          216606 
        916.289          166464 
        916.379          146572 
        916.421          144114 
        916.425          144080 
        916.429          144075 
        916.479          146881 
         916.58          171725 
         916.68          218795 
         916.78          263625 
         916.88          284890 
         916.98          276761 
         917.08          241406 
         917.18          190157 
        917.182          189094 
         917.28          150023 
        917.378          140326 
        917.575          191886 
        917.771          305213 
        917.967          360777 
        918.163          325246 
        918.359          218378 
         918.51          146604 
        918.556          140720 
        918.602          139561 
        918.694          146992 
        918.878          244330 
        919.062          364742 
        919.201          431074 
        919.241          444086 
        919.246          445522 
        919.251          446907 
        919.301          457538 
        919.402          465719 
        919.502          458792 
        919.602          434077 
        919.702          393277 
        919.802          336688 
        919.902          272914 
        920.002          205669 
        920.102          151682 
        920.163          142202 
        920.189          141471 
        920.202          141359 
        920.215          141337 
        920.267          142403 
        920.372          171838 
        920.476          238847 
         920.58          311477 
        920.684          384349 
        920.788          446885 
        920.892          500585 
        920.996          540715 
          921.1          568832 
        921.204          585238 
        921.308          591556 
        921.413          587236 
        921.517          571672 
        921.621          544187 
        921.725          503500 
        921.829          451921 
        921.933          391970 
        922.037          321149 
        922.141          246778 
        922.245          176971 
        922.294          152967 
         922.35          145615 
        922.405          145224 
        922.515          153422 
        922.625          218028 
         922.66          242873 
        922.735          298847 
         922.81          353549 
         922.96          455380 
         923.11          544991 
         923.26          619579 
        923.411          678022 
        923.561          721090 
        923.711          749549 
        923.861          765374 
        924.011          769074 
        924.161          758742 
        924.312          733122 
        924.462          690236 
        924.612          631985 
        924.762          561987 
        924.912          476218 
        925.062          377663 
        925.212          264559 
        925.241          241229 
        925.363          162092 
        925.484          151311 
        925.605          162616 
        925.726          242786 
        925.847          338076 
        925.968          427455 
        926.089          507509 
         926.21          581622 
         926.22          587261 
        926.295          628064 
        926.332          647941 
        926.369          667101 
        926.517          743222 
        926.665          810214 
        926.813          867010 
        926.961          913434 
        927.109          949169 
        927.257          977984 
        927.406      1.00033e+6 
        927.554      1.01568e+6 
        927.702      1.02505e+6 
        927.814      1.02775e+6 
         927.85      1.02788e+6 
        927.998      1.02428e+6 
        928.182      1.00425e+6 
        928.367          967479 
        928.551          912919 
        928.735          847709 
        928.749          842214 
        928.919          777133 
        929.089          701920 
        929.211          639597 
        929.257          614759 
        929.259          613663 
        929.261          612563 
        929.312          584110 
        929.412          522529 
        929.419          517976 
        929.481          477390 
        929.512          455990 
        929.543          434140 
        929.565          418108 
        929.667          339565 
        929.769          255947 
        929.833          205423 
        929.859          187382 
        929.871          180308 
        929.883          174048 
         929.91          164296 
        929.927          161561 
        929.933          161098 
        929.939          160804 
        929.954          160613 
        929.968          160614 
        929.982          160642 
        929.996          160672 
         930.01          160702 
        930.024          160731 
        930.038          160761 
        930.052          160792 
        930.081          161107 
        930.137          174630 
        930.201          216804 
        930.247          254100 
        930.249          255807 
        930.251          257521 
        930.301          299914 
        930.326          319616 
        930.402          380730 
        930.478          439198 
         930.63          544359 
        930.633          546329 
        930.782          638057 
        930.931          720908 
         931.08          795756 
        931.229          865512 
        931.379          937410 
        931.528      1.00852e+6 
        931.677       1.0765e+6 
        931.788       1.1228e+6 
        931.814      1.13319e+6 
        931.826      1.13792e+6 
        931.838       1.1426e+6 
        931.888      1.16163e+6 
        931.988      1.19727e+6 
        932.088      1.22533e+6 
        932.188      1.25101e+6 
        932.389      1.29623e+6 
        932.589      1.33375e+6 
        932.789      1.36473e+6 
        932.989       1.3887e+6 
        933.189      1.40748e+6 
        933.347      1.41859e+6 
        933.375      1.42019e+6 
        933.377       1.4203e+6 
        933.389      1.42095e+6 
        933.403      1.42169e+6 
        933.432      1.42296e+6 
         933.46       1.4241e+6 
        933.542      1.42676e+6 
        933.652      1.42869e+6 
        933.762      1.42871e+6 
        933.872      1.42664e+6 
        933.982      1.42109e+6 
        934.092      1.41139e+6 
        934.202      1.39863e+6 
        934.312      1.38245e+6 
        934.413        1.365e+6 
        934.422      1.36336e+6 
        934.533      1.34154e+6 
        934.652      1.31388e+6 
        934.771      1.28202e+6 
         934.89       1.2468e+6 
        935.009      1.20729e+6 
        935.026      1.20132e+6 
        935.128      1.16688e+6 
         935.23      1.13535e+6 
        935.332      1.10168e+6 
        935.434      1.06579e+6 
        935.537      1.02785e+6 
        935.639          987578 
        935.741          945701 
        935.746          943593 
        935.843          901640 
        935.945          854124 
        936.144          754296 
        936.343          645531 
        936.484          556791 
        936.542          516201 
        936.601          473008 
        936.605          469945 
        936.717          379580 
        936.829          282485 
        936.894          226530 
        936.938          194492 
        936.941          192736 
        936.944          191046 
        936.973          179304 
        936.987          176939 
        936.994          176426 
        937.001          176218 
        937.015          176160 
        937.029          176187 
        937.043          176219 
        937.058          176253 
        937.072          176285 
        937.086          176317 
        937.101          176352 
        937.115          176384 
        937.143          176544 
          937.2          191678 
        937.314          283275 
        937.428          383714 
        937.493          438086 
        937.542          477563 
        937.593          516698 
        937.694          587761 
        937.794          652314 
        937.894          711436 
         937.95          743241 
        937.988          764224 
        937.994          767529 
            938          770915 
         938.05          798470 
         938.15          851981 
         938.35          952741 
         938.55       1.0451e+6 
        938.587      1.06179e+6 
        938.751      1.13243e+6 
        938.883      1.18728e+6 
        938.914       1.1998e+6 
        939.077      1.26608e+6 
        939.271      1.35577e+6 
        939.465      1.44057e+6 
        939.659       1.5201e+6 
        939.854      1.59549e+6 
        940.048       1.6678e+6 
        940.132      1.69754e+6 
        940.242      1.73398e+6 
        940.284       1.7463e+6 
        940.436      1.78961e+6 
        940.588       1.8311e+6 
         940.74      1.87062e+6 
        941.045      1.94898e+6 
        941.197      1.98526e+6 
        941.349      2.01939e+6 
        941.501      2.04789e+6 
        941.653      2.07455e+6 
        941.958      2.12244e+6 
        942.262      2.16254e+6 
        942.566      2.19197e+6 
        942.693      2.20153e+6 
         942.87      2.21197e+6 
        943.048      2.21896e+6 
        943.225      2.22243e+6 
        943.402      2.22145e+6 
        943.579      2.21632e+6 
        943.756      2.20687e+6 
        943.933      2.19306e+6 
        944.111      2.17322e+6 
        944.288      2.14574e+6 
        944.465      2.11284e+6 
        944.642      2.07495e+6 
        944.685      2.06494e+6 
        944.819      2.03369e+6 
        944.841       2.0287e+6 
        944.996      1.99056e+6 
        945.152      1.94893e+6 
        945.308      1.90356e+6 
        945.463      1.85503e+6 
        945.619      1.80337e+6 
        945.774      1.74855e+6 
         945.93      1.69453e+6 
        945.947      1.68933e+6 
        946.085      1.64617e+6 
        946.241      1.59652e+6 
        946.249      1.59376e+6 
        946.553      1.49579e+6 
        946.855      1.39204e+6 
        947.007      1.33747e+6 
        947.158      1.28148e+6 
        947.309       1.2226e+6 
        947.462      1.16097e+6 
        947.613      1.09504e+6 
        947.764      1.02484e+6 
        947.915          947963 
        948.017          893020 
         948.05          874667 
        948.067          865389 
        948.083          855908 
        948.149          817801 
        948.281          736650 
        948.413          645497 
        948.495          582250 
        948.546          541011 
        948.596          497487 
        948.615          480365 
        948.661          438698 
        948.696          406076 
        948.777          327404 
        948.835          270731 
        948.893          222498 
        948.922          208554 
        948.951          205239 
        948.966          205257 
         948.98          205293 
        948.994          205329 
        949.009          205368 
        949.023          205404 
        949.037          205440 
        949.052          205479 
        949.066          205515 
        949.095          205613 
        949.153          223223 
         949.23          290075 
        949.258          318140 
        949.269          329352 
         949.28          340734 
         949.33          389916 
         949.36          418834 
         949.43          484025 
          949.5          546989 
         949.64          660536 
        949.781          759753 
        949.795          768867 
        949.879          822635 
        949.921          848419 
        949.963          873894 
        950.131          971434 
        950.299      1.06207e+6 
        950.467      1.14551e+6 
        950.635       1.2239e+6 
        950.719      1.26135e+6 
        950.804      1.29801e+6 
        950.888      1.33413e+6 
        951.056      1.40398e+6 
        951.224      1.47241e+6 
        951.392      1.53908e+6 
        951.728      1.66901e+6 
        951.896      1.73505e+6 
        952.065      1.80083e+6 
        952.233      1.87138e+6 
        952.401       1.9491e+6 
        952.569      2.02524e+6 
        952.688      2.07844e+6 
        952.737      2.10032e+6 
        952.788      2.12299e+6 
        952.888      2.16723e+6 
        953.089      2.25498e+6 
        953.489       2.4368e+6 
        953.889      2.62706e+6 
         954.29      2.80845e+6 
         954.69      2.98774e+6 
        954.967      3.10726e+6 
         955.09      3.15777e+6 
        955.228      3.21413e+6 
        955.491      3.31912e+6 
        955.752      3.42085e+6 
        956.014      3.50957e+6 
        956.537      3.69222e+6 
        957.061      3.86827e+6 
        957.584      4.03399e+6 
        957.974      4.14759e+6 
        958.108      4.18457e+6 
        958.302      4.23631e+6 
        958.631      4.31787e+6 
         958.96      4.39085e+6 
        959.289      4.45377e+6 
        959.463      4.47752e+6 
        959.618      4.49625e+6 
        959.946      4.52905e+6 
         960.43      4.55858e+6 
        960.671      4.56957e+6 
        960.913      4.57416e+6 
        961.154      4.57205e+6 
        961.397      4.56354e+6 
        961.638      4.54796e+6 
         961.88      4.52575e+6 
        962.121      4.49719e+6 
        962.363       4.4615e+6 
        962.605      4.41962e+6 
        962.847      4.37109e+6 
        963.088      4.31658e+6 
        963.571      4.19315e+6 
         963.88       4.1044e+6 
        964.055      4.05165e+6 
        964.231      3.99639e+6 
        964.582      3.88134e+6 
        965.285      3.63922e+6 
        965.348      3.61732e+6 
        965.987      3.38956e+6 
         966.69      3.13871e+6 
        966.767      3.11048e+6 
          967.4      2.88161e+6 
        968.032       2.6489e+6 
        968.348      2.52814e+6 
        968.665       2.4054e+6 
        968.668       2.4042e+6 
        968.981      2.27763e+6 
        968.983      2.27701e+6 
        969.297      2.14479e+6 
        969.611      2.00402e+6 
        969.876      1.87821e+6 
        969.927      1.85348e+6 
        969.977      1.82843e+6 
        970.077      1.77685e+6 
        970.277      1.66852e+6 
        970.477      1.55201e+6 
         970.48       1.5502e+6 
        970.677      1.42444e+6 
        970.874      1.28408e+6 
        971.071      1.12639e+6 
         971.19      1.01964e+6 
        971.269          940759 
        971.348          853247 
        971.427          755735 
        971.467          701989 
        971.506          646599 
        971.585          527517 
        971.644          434404 
        971.703          346241 
        971.732          309535 
        971.762          282603 
        971.778          274690 
        971.792          271882 
        971.806          271491 
        971.821          271534 
        971.827          271554 
        971.833          271573 
        971.836          271583 
        971.839          271592 
        971.851          271631 
        971.866          271680 
         971.88          271827 
         971.91          279413 
        971.969          339116 
        972.037          441092 
        972.087          520823 
        972.137          598426 
         972.15          617945 
        972.237          742622 
        972.324          853131 
        972.499      1.03777e+6 
        972.548      1.08321e+6 
        972.673      1.18954e+6 
        972.798      1.28608e+6 
        972.923      1.37389e+6 
        973.048      1.45493e+6 
        973.173      1.52998e+6 
        973.298      1.59928e+6 
        973.423      1.66562e+6 
        973.548      1.72846e+6 
        973.601      1.75422e+6 
        973.673      1.78867e+6 
        973.746      1.82238e+6 
         973.89      1.88803e+6 
        974.034      1.95046e+6 
        974.178      2.01063e+6 
        974.466      2.12812e+6 
        974.754      2.24099e+6 
        975.043      2.34834e+6 
        975.331      2.45543e+6 
        975.556      2.53025e+6 
        975.598       2.5443e+6 
        975.619      2.55133e+6 
         975.64      2.55837e+6 
        975.724      2.58659e+6 
        975.892      2.64335e+6 
        976.228      2.75312e+6 
        976.565      2.86613e+6 
        976.901      2.98729e+6 
        977.237      3.12114e+6 
        977.574      3.24816e+6 
         977.91      3.38365e+6 
        978.246      3.51695e+6 
        978.414      3.58694e+6 
        978.582      3.66124e+6 
         978.75      3.74173e+6 
        978.919      3.82856e+6 
        979.087      3.92306e+6 
        979.105      3.93371e+6 
        979.205      3.99488e+6 
        979.255      4.02733e+6 
        979.305      4.06082e+6 
        979.505      4.18005e+6 
        979.705      4.31353e+6 
        979.905      4.46455e+6 
        980.105       4.5981e+6 
        980.306      4.72219e+6 
        980.506      4.85872e+6 
        980.706       4.9957e+6 
        980.906      5.10895e+6 
        981.106      5.22799e+6 
        981.506      5.47215e+6 
        982.307       5.9575e+6 
        982.707      6.20364e+6 
        983.108      6.45607e+6 
        983.508      6.72131e+6 
        983.863      6.97609e+6 
        983.893      6.99834e+6 
        983.908      7.00952e+6 
        983.923      7.02067e+6 
        983.983      7.06604e+6 
        984.103      7.15237e+6 
        984.344      7.31865e+6 
        984.824      7.65688e+6 
        984.951      7.74051e+6 
        985.785      8.30756e+6 
        986.202      8.60199e+6 
         986.41      8.74582e+6 
        986.618      8.89071e+6 
        986.826      9.01405e+6 
        987.035      9.09312e+6 
        987.244      9.16908e+6 
        987.452      9.24332e+6 
