# Koester WD models
# teff = 14500 K (value for the effective temperature for the model. Temperatures are given in K)
# logg = 8.75 log(cm/s2) (value for Log(G) for the model.)
#
# column 1: WAVELENGTH (ANGSTROM), Wavelength in Angstrom
# column 2: FLUX (ERG/CM2/S/A), Flux in erg/cm2/s/A
         899.23          150513 
        904.235          160515 
         908.45          169345 
        909.241          171044 
        910.032          172756 
        911.193          175293 
        911.613          176214 
        911.824          176674 
        911.929          176903 
        912.034          177131 
        912.139          180098 
        912.244          183156 
        912.349          186292 
        912.454          189497 
        912.559          192764 
        912.664          196081 
         912.77          199416 
        912.875          202690 
        912.886          203025 
         912.98          205714 
        913.085          208087 
        913.284          211192 
        913.339          211383 
        913.435          211569 
        913.483          212129 
        913.531          212644 
        913.625          212380 
        913.724          210682 
        913.822          210376 
        913.871          210888 
        914.018          208621 
        914.165          200181 
        914.312          210726 
        914.343          211965 
        914.459          197930 
        914.575          184527 
        914.692          201449 
        914.808          219892 
        914.924          198382 
        915.009          175455 
         915.04          171006 
        915.071          169746 
        915.133          176481 
        915.257          217389 
        915.381          239174 
        915.505          201597 
        915.609          166416 
        915.617          164994 
         915.63          162573 
        915.643          160951 
        915.677          159158 
        915.745          167187 
        915.881          226427 
        916.017          276837 
        916.153          256485 
        916.289          187234 
        916.379          156485 
        916.421          152991 
        916.425          152937 
        916.429          152925 
        916.479          156778 
         916.58          194549 
         916.68          258693 
         916.78          315281 
         916.88          341274 
         916.98          332503 
         917.08          289192 
         917.18          223035 
        917.182          221582 
         917.28          164918 
        917.378          149707 
        917.575          224980 
        917.771          367620 
        917.967          433109 
        918.163          392517 
        918.359          262013 
         918.51          160609 
        918.556          151033 
        918.602          149393 
        918.694          161033 
        918.878          294428 
        919.062          439220 
        919.201          516007 
        919.241          531133 
        919.246          532805 
        919.251          534426 
        919.301          546593 
        919.402          555990 
        919.502          548032 
        919.602          519748 
        919.702          473140 
        919.802          407468 
        919.902          331030 
        920.002          245845 
        920.102          169111 
        920.163          152801 
        920.189          151701 
        920.202          151534 
        920.215          151510 
        920.267          153016 
        920.372          198873 
        920.476          288718 
         920.58          377915 
        920.684          462750 
        920.788          534837 
        920.892          596014 
        920.996          641617 
          921.1          673466 
        921.204          691596 
        921.308          698656 
        921.413          694025 
        921.517          676957 
        921.621          645776 
        921.725          599212 
        921.829          540590 
        921.933          471917 
        922.037          389391 
        922.086          347953 
        922.141          298748 
        922.245          205853 
        922.405          155722 
        922.564          206743 
        922.636          271786 
        922.723          351594 
         922.81          427552 
        922.984          561503 
        923.158          676203 
        923.333          764525 
        923.507          827816 
        923.681          868556 
        923.855          890852 
        924.029          895250 
        924.203          878047 
        924.378          837611 
        924.552          771343 
        924.726          686548 
          924.9          577048 
        925.074          445490 
        925.248          284452 
        925.362          182905 
        925.423          162641 
        925.484          162218 
        925.606          183495 
        925.728          295404 
         925.85          412086 
        925.972          516603 
        926.094          608338 
        926.216          692435 
        926.248          712840 
        926.309          749248 
        926.339          766888 
        926.369          784085 
        926.489          852679 
        926.609          915316 
        926.729          970149 
        926.849      1.01781e+6 
        926.969      1.05774e+6 
        927.089      1.08894e+6 
        927.209      1.11562e+6 
         927.33      1.13756e+6 
         927.45      1.15531e+6 
         927.57      1.16764e+6 
         927.69      1.17608e+6 
         927.81      1.17952e+6 
         927.93       1.1783e+6 
         928.05       1.1713e+6 
        928.132      1.16097e+6 
        928.158      1.15698e+6 
         928.17      1.15502e+6 
        928.182      1.15298e+6 
        928.232       1.1438e+6 
        928.333      1.12129e+6 
        928.433      1.09331e+6 
        928.533      1.05897e+6 
        928.633      1.02264e+6 
        928.833          942663 
        928.977          878857 
        929.033          851962 
        929.089          823430 
        929.141          794964 
        929.201          760407 
        929.261          723977 
        929.382          643700 
        929.461          585618 
        929.481          570400 
        929.502          554133 
        929.543          521074 
        929.625          449750 
        929.655          421985 
        929.769          308871 
        929.827          248198 
        929.883          196900 
         929.91          180070 
        929.939          172761 
        929.954          172183 
        929.968          172138 
        929.982          172164 
        929.996          172195 
         930.01          172227 
        930.024          172259 
        930.038          172291 
        930.052          172329 
        930.081          173084 
        930.137          197551 
        930.201          257661 
        930.247          306422 
        930.249          308578 
        930.251          310739 
        930.301          363052 
        930.326          386793 
        930.402          459584 
        930.478          527037 
         930.63          647112 
        930.633          649361 
        930.782          753178 
        930.931          844909 
         931.08          926292 
        931.229      1.00227e+6 
        931.379      1.07912e+6 
        931.516      1.15032e+6 
        931.677      1.23171e+6 
        931.838      1.30485e+6 
        931.999      1.36943e+6 
         932.16      1.41766e+6 
        932.321       1.4599e+6 
        932.483       1.4949e+6 
        932.644       1.5257e+6 
        932.805      1.55187e+6 
        932.966      1.57354e+6 
        933.127      1.59152e+6 
        933.173      1.59599e+6 
        933.265        1.604e+6 
        933.288      1.60581e+6 
        933.403      1.61361e+6 
        933.432      1.61512e+6 
        933.542      1.61976e+6 
        933.652      1.62232e+6 
        933.762      1.62283e+6 
        933.872      1.62101e+6 
        933.982      1.61512e+6 
        934.092      1.60437e+6 
        934.202      1.59006e+6 
        934.312      1.57211e+6 
        934.413      1.55269e+6 
        934.422      1.55086e+6 
        934.533      1.52638e+6 
        934.652      1.49513e+6 
        934.771      1.45915e+6 
         934.89      1.41971e+6 
        935.009      1.37596e+6 
        935.026      1.36934e+6 
        935.128      1.33183e+6 
         935.23      1.29726e+6 
        935.332      1.26033e+6 
        935.434       1.2213e+6 
        935.537      1.17958e+6 
        935.639      1.13544e+6 
        935.741      1.09014e+6 
        935.746      1.08786e+6 
        935.843      1.04207e+6 
        935.945          990484 
        936.144          882093 
        936.343          761758 
        936.484          661764 
        936.542          615479 
        936.601          566278 
        936.605          562760 
        936.717          457579 
        936.829          340015 
        936.894          266858 
        936.938          221406 
        936.941          218793 
        936.944          216232 
        936.973          195679 
        936.987          190732 
        936.994          189523 
        937.001          188959 
        937.015          188706 
        937.029          188726 
        937.043          188760 
        937.058          188796 
        937.072          188830 
        937.086          188865 
        937.101          188901 
        937.115          188936 
        937.143          189306 
          937.2          216940 
        937.314          340891 
        937.428          462490 
        937.493          526094 
        937.542          571666 
        937.593          616380 
        937.694          697286 
        937.794          769788 
        937.894          836019 
         937.95          870799 
        937.988          893840 
        937.994          897468 
            938          901185 
         938.05          931517 
         938.15          989372 
         938.25      1.04554e+6 
         938.45      1.14993e+6 
         938.65      1.24855e+6 
        938.788      1.31257e+6 
        938.809      1.32221e+6 
        938.851      1.34133e+6 
        938.914      1.36953e+6 
        938.924      1.37415e+6 
         939.04      1.42407e+6 
        939.155      1.48309e+6 
        939.271      1.54199e+6 
        939.502       1.6552e+6 
        939.733      1.76047e+6 
        939.965        1.861e+6 
        940.081      1.90898e+6 
        940.196      1.95501e+6 
        940.312        1.994e+6 
        940.427      2.03058e+6 
        940.576      2.07608e+6 
        940.658      2.10019e+6 
         940.74      2.12373e+6 
        940.905      2.17275e+6 
        941.069      2.21958e+6 
        941.233      2.26378e+6 
        941.397      2.30417e+6 
        941.561      2.33918e+6 
        941.725       2.3717e+6 
        941.889      2.40176e+6 
        942.054      2.42932e+6 
        942.218      2.45449e+6 
        942.382      2.47569e+6 
        942.546      2.49339e+6 
        942.701      2.50707e+6 
         942.71      2.50777e+6 
        942.874      2.51863e+6 
        943.048      2.52619e+6 
        943.221      2.52956e+6 
        943.394      2.52796e+6 
        943.567      2.52168e+6 
         943.74      2.51058e+6 
        943.913      2.49461e+6 
        944.086      2.47243e+6 
         944.26      2.44104e+6 
        944.433      2.40393e+6 
        944.606      2.36099e+6 
        944.779      2.31328e+6 
        944.943      2.26705e+6 
        944.952      2.26438e+6 
        945.125      2.21034e+6 
        945.308      2.14826e+6 
         945.49      2.08161e+6 
        945.672      2.01086e+6 
        945.854      1.93624e+6 
        946.036      1.87301e+6 
        946.218      1.81027e+6 
        946.401      1.74664e+6 
        946.583      1.68113e+6 
        946.736      1.62384e+6 
        946.765      1.61303e+6 
        946.947       1.5433e+6 
        947.158      1.45899e+6 
        947.264      1.41511e+6 
        947.369      1.36969e+6 
        947.476      1.32244e+6 
        947.581      1.27297e+6 
        947.687      1.22144e+6 
        947.792      1.16689e+6 
        947.898      1.10889e+6 
        947.923      1.09447e+6 
        948.003      1.04805e+6 
        948.083          998932 
        948.243          894088 
        948.261          881424 
        948.403          772904 
        948.546          645795 
        948.599          592605 
        948.661          526983 
        948.688          497025 
        948.777          392643 
        948.835          319538 
        948.893          251522 
        948.922          226835 
        948.951          219736 
        948.966          219675 
         948.98          219713 
        948.994          219751 
        949.009          219793 
        949.023          219831 
        949.037          219870 
        949.052          219911 
        949.066          219950 
        949.095          220133 
        949.153          252333 
         949.23          344818 
        949.258          380836 
        949.269          394942 
         949.28          408963 
         949.33          469002 
         949.36          503154 
         949.43          580507 
          949.5          652817 
         949.64          781942 
        949.781          893378 
        949.795          903711 
        949.879          963410 
        949.921          991659 
        949.963      1.01962e+6 
        950.131      1.12568e+6 
        950.299       1.2237e+6 
        950.467      1.31396e+6 
        950.635      1.39889e+6 
        950.719      1.43965e+6 
        950.804       1.4792e+6 
        950.888      1.51809e+6 
        951.056      1.59394e+6 
        951.392      1.74062e+6 
        951.728      1.88261e+6 
        951.896       1.9534e+6 
        952.065      2.02396e+6 
        952.233      2.10106e+6 
        952.401      2.18738e+6 
        952.569      2.27276e+6 
        952.688      2.33243e+6 
        952.737       2.3572e+6 
        952.788      2.38286e+6 
        952.888      2.43272e+6 
        953.089      2.53149e+6 
        953.489      2.73418e+6 
        953.889      2.94778e+6 
        954.166      3.09041e+6 
         954.29      3.15259e+6 
        954.628      3.32566e+6 
         955.09      3.55697e+6 
        955.321      3.66787e+6 
        955.552      3.77761e+6 
        955.783      3.88499e+6 
        955.964      3.95702e+6 
        956.014      3.97657e+6 
        956.064       3.9962e+6 
        956.164      4.03528e+6 
        956.364      4.11253e+6 
        956.765       4.2616e+6 
        957.165      4.40483e+6 
        957.565      4.53957e+6 
        957.966      4.66454e+6 
        958.366      4.77767e+6 
        958.766      4.87827e+6 
        959.045      4.93953e+6 
        959.167      4.96403e+6 
        959.289      4.98706e+6 
        959.533      5.02322e+6 
        959.613      5.03362e+6 
        959.777      5.05297e+6 
        960.021       5.0771e+6 
         960.43      5.10217e+6 
        960.838      5.11247e+6 
        961.246      5.10213e+6 
        961.655      5.07128e+6 
        962.063      5.02011e+6 
        962.471      4.94883e+6 
         962.88      4.85916e+6 
        963.288       4.7499e+6 
        963.696      4.62678e+6 
        963.979      4.53517e+6 
        964.105      4.49238e+6 
        964.231       4.4479e+6 
        964.483      4.35821e+6 
        964.988      4.17046e+6 
        965.492      3.97361e+6 
        965.978       3.7804e+6 
        965.996       3.7733e+6 
        966.767      3.46577e+6 
        967.005       3.3703e+6 
          967.4      3.21253e+6 
        968.032      2.95562e+6 
        968.348      2.82266e+6 
        968.665      2.68767e+6 
        968.668      2.68637e+6 
        968.981      2.54841e+6 
        968.983      2.54773e+6 
        969.297      2.40429e+6 
        969.454      2.32949e+6 
        969.611      2.25282e+6 
        969.769      2.17312e+6 
        969.876      2.11667e+6 
        969.927      2.08986e+6 
        969.977      2.06277e+6 
        970.077      2.00708e+6 
        970.277       1.8905e+6 
        970.477      1.76522e+6 
         970.48      1.76327e+6 
        970.677      1.62773e+6 
        970.874      1.47708e+6 
        971.071      1.30742e+6 
         971.19      1.19083e+6 
        971.269      1.10276e+6 
        971.348      1.00511e+6 
        971.427          894854 
        971.467          833838 
        971.506          770344 
        971.585          630961 
        971.644          518551 
        971.703          404364 
        971.732          353919 
        971.762          312594 
        971.778          298312 
        971.792          291802 
        971.806          290147 
        971.821          290144 
        971.827          290165 
        971.833          290186 
        971.836          290196 
        971.839          290206 
        971.851          290247 
        971.866          290300 
         971.88          290921 
         971.91          306947 
        971.969          394468 
        972.037          526650 
        972.087          623132 
        972.137          714719 
         972.15          737753 
        972.237          880422 
        972.324       1.0052e+6 
        972.499      1.21145e+6 
        972.548      1.26103e+6 
        972.673      1.37724e+6 
        972.798      1.48083e+6 
        972.923      1.57566e+6 
        973.048       1.6624e+6 
        973.173      1.74303e+6 
        973.298      1.81811e+6 
        973.351      1.84873e+6 
        973.423      1.88923e+6 
        973.548      1.95714e+6 
        973.746       2.0581e+6 
        973.943       2.1545e+6 
         974.14      2.24469e+6 
        974.337      2.33203e+6 
        974.731      2.50081e+6 
        975.126      2.65985e+6 
          975.4      2.76724e+6 
         975.52      2.81076e+6 
         975.64      2.85446e+6 
         975.88      2.94293e+6 
        976.361      3.11619e+6 
        976.601      3.20593e+6 
        976.841      3.30065e+6 
        977.081      3.40225e+6 
        977.321      3.51051e+6 
        977.802      3.71277e+6 
        978.042      3.82062e+6 
        978.282      3.92536e+6 
        978.522      4.03933e+6 
        978.762      4.16487e+6 
        979.003      4.30546e+6 
        979.181      4.42201e+6 
        979.243      4.46559e+6 
        979.305      4.51089e+6 
        979.429      4.59059e+6 
        979.553       4.6761e+6 
        979.677      4.76759e+6 
        979.801      4.86504e+6 
        979.925      4.96997e+6 
        980.049      5.06167e+6 
        980.173      5.14276e+6 
        980.298      5.22758e+6 
        980.422      5.31636e+6 
        980.546      5.40945e+6 
        980.794      5.58003e+6 
        981.042      5.73765e+6 
         981.29      5.90114e+6 
        981.636      6.12215e+6 
        981.787      6.22221e+6 
        982.207      6.49908e+6 
        982.779      6.87132e+6 
        983.066      7.06349e+6 
        983.351      7.26327e+6 
        983.637      7.47957e+6 
        983.923      7.70422e+6 
        984.496      8.13446e+6 
        985.067      8.55003e+6 
        985.804      9.09092e+6 
        986.211      9.39572e+6 
        986.415        9.544e+6 
        986.618      9.69345e+6 
        986.821      9.82395e+6 
        987.026       9.9073e+6 
        987.229      9.98759e+6 
        987.433      1.00661e+7 
         987.84      1.02053e+7 
        988.043      1.02706e+7 
        988.247      1.03683e+7 
        988.451      1.04908e+7 
        988.655      1.06125e+7 
        988.812      1.07067e+7 
