# Koester WD models
# teff = 14000 K (value for the effective temperature for the model. Temperatures are given in K)
# logg = 8.75 log(cm/s2) (value for Log(G) for the model.)
#
# column 1: WAVELENGTH (ANGSTROM), Wavelength in Angstrom
# column 2: FLUX (ERG/CM2/S/A), Flux in erg/cm2/s/A
         899.23         93565.1 
        904.235          100129 
         908.45          105942 
        909.241          107062 
        910.032          108192 
        911.193          109867 
        911.613          110476 
        911.824          110780 
        911.929          110932 
        912.034          111083 
        912.139          112771 
        912.244          114602 
        912.349          116490 
        912.454          118434 
        912.559          120426 
        912.664          122454 
         912.77          124547 
        912.875          126643 
        912.886          126857 
         912.98          128578 
        913.085          130045 
        913.284          131837 
        913.339          131901 
        913.435          131897 
        913.483          132200 
        913.531          132499 
        913.625          132295 
        913.724          130994 
        913.822          130603 
        913.871          130989 
        914.018          129691 
        914.165          123927 
        914.312          131225 
        914.343          132128 
        914.459          123025 
        914.575          114832 
        914.692          125182 
        914.808          137540 
        914.924          123859 
        915.009          110226 
         915.04          107728 
        915.071          107036 
        915.133          110792 
        915.257          135869 
        915.381          150484 
        915.505          126446 
        915.609          105792 
        915.617          105014 
         915.63          103751 
        915.643          102978 
        915.677          102129 
        915.745          106201 
        915.881          141598 
        916.017          175111 
        916.153          161275 
        916.289          117799 
        916.379          101189 
        916.421         99609.8 
        916.425         99585.7 
        916.429         99581.3 
        916.479          101364 
         916.58          122078 
         916.68          162018 
         916.78          200008 
         916.88          217832 
         916.98          211941 
         917.08          182483 
         917.18          139671 
        917.182          138777 
         917.28          105824 
        917.378         98865.6 
        917.575          140777 
        917.771          234818 
        917.967          279181 
        918.163          251385 
        918.359          164490 
         918.51          104295 
        918.556          100156 
        918.602         99653.8 
        918.694          104574 
        918.878          185637 
        919.062          282854 
        919.201          335817 
        919.241          346150 
        919.246          347287 
        919.251          348393 
        919.301          356762 
        919.402          363196 
        919.502          357614 
        919.602          338299 
        919.702          306110 
        919.802          261396 
        919.902          210348 
        920.002          154607 
        920.102          109168 
        920.163          101936 
        920.189          101663 
        920.202          101642 
        920.215          101648 
        920.267          102084 
        920.372          125849 
        920.476          182245 
         920.58          241837 
        920.684          298864 
        920.788          348645 
        920.892          391059 
        920.996          423025 
          921.1          445308 
        921.204          458280 
        921.308          463350 
        921.413          459998 
        921.517          447721 
        921.621          425818 
        921.725          392847 
        921.829          352355 
        921.933          305077 
        922.037          249458 
        922.141          189015 
        922.245          130430 
        922.294          110587 
         922.35          104805 
        922.405          104743 
        922.515          110924 
        922.625          165146 
         922.66          185764 
        922.735          231379 
         922.81          274969 
         922.96          355154 
         923.11          426066 
         923.26          486111 
        923.411          532136 
        923.561          565314 
        923.711          587424 
        923.861          600113 
        924.011          603214 
        924.161          595052 
        924.312          574704 
        924.462          540599 
        924.612          494634 
        924.762          439022 
        924.912          371267 
        925.062          293890 
        925.212          203401 
        925.241          184304 
        925.363          118021 
        925.484          109282 
        925.605          118412 
        925.726          185515 
        925.847          262682 
        925.968          333015 
        926.089          395702 
         926.21          454413 
        926.295          491524 
        926.332          507166 
        926.369          522108 
        926.443          552408 
        926.591          609846 
        926.739          659383 
        926.887          700720 
        927.035          732503 
        927.183          757469 
        927.332          776803 
         927.48          791540 
        927.628          800918 
        927.776          805646 
        927.924          804929 
        927.962          803861 
        928.072          797672 
        928.182          786171 
        928.293          770215 
        928.403          748940 
        928.513          722635 
        928.623          694235 
        928.733          663250 
        928.843          631426 
        928.953          596768 
        928.985          586102 
        929.037          567994 
        929.063          558625 
        929.089          549081 
        929.125          535403 
        929.193          507732 
        929.261          478439 
        929.398          413983 
        929.493          365213 
        929.526          347397 
        929.534          342512 
        929.543          337608 
        929.593          308622 
        929.617          294092 
        929.655          270805 
        929.693          246632 
        929.769          195643 
        929.827          157536 
        929.883          127482 
         929.91          118917 
        929.939          116256 
        929.954          116167 
        929.968          116182 
        929.982          116204 
        929.996          116226 
         930.01          116248 
        930.024          116270 
        930.038          116293 
        930.052          116315 
        930.081          116480 
        930.137          127920 
        930.201          163354 
        930.247          194062 
        930.249          195465 
        930.251          196873 
        930.301          231425 
        930.326          247317 
        930.402          295790 
        930.478          341611 
         930.63          424219 
        930.633          425783 
        930.782          498630 
        930.931          563734 
         931.08          621985 
        931.229          676090 
        931.379          731149 
        931.516          782385 
        931.677          842252 
        931.838          895960 
        931.999          943279 
         932.16          979062 
        932.321      1.01032e+6 
        932.483      1.03586e+6 
        932.644      1.05816e+6 
        932.805      1.07705e+6 
        932.966      1.09265e+6 
        933.127      1.10557e+6 
        933.173      1.10877e+6 
        933.265      1.11452e+6 
        933.288      1.11581e+6 
        933.403       1.1214e+6 
        933.432      1.12238e+6 
        933.542      1.12531e+6 
        933.652      1.12674e+6 
        933.762      1.12668e+6 
        933.872      1.12497e+6 
        933.982      1.12037e+6 
        934.092       1.1123e+6 
        934.202      1.10175e+6 
        934.312      1.08855e+6 
        934.413      1.07402e+6 
        934.422      1.07264e+6 
        934.533       1.0542e+6 
        934.652      1.03098e+6 
        934.771      1.00464e+6 
         934.89          975942 
        935.009          944561 
        935.026          939817 
        935.128          912560 
         935.23          887553 
        935.332          860765 
        935.434          832230 
        935.537          801593 
        935.639          769646 
        935.741          736851 
        935.843          702165 
        935.945          665502 
         935.95          663655 
        936.047          626804 
        936.144          588266 
        936.338          505727 
        936.464          443970 
        936.532          407326 
        936.601          367767 
        936.645          340721 
        936.714          296381 
        936.737          281023 
        936.829          216033 
        936.887          174758 
        936.944          140405 
        936.973          130088 
        937.001          127750 
        937.015          127736 
        937.029          127759 
        937.043          127783 
        937.058          127808 
        937.072          127832 
        937.086          127856 
        937.101          127882 
        937.115          127906 
        937.143          127992 
          937.2          140882 
        937.314          216618 
        937.428          297682 
        937.493          340448 
        937.542          371396 
        937.593          402202 
        937.694          457991 
        937.794          508897 
        937.894          555311 
         937.95          580017 
        937.988          596306 
        937.994          598825 
            938          601405 
         938.05          622695 
         938.15          663994 
         938.35          742000 
         938.55          814046 
        938.587          827228 
        938.751          883397 
        938.883          926453 
        938.914          936223 
        939.077          987965 
        939.271      1.05837e+6 
        939.465      1.12636e+6 
        939.659        1.191e+6 
        939.854      1.25159e+6 
        940.048      1.30953e+6 
        940.242       1.3623e+6 
        940.436      1.40547e+6 
         940.52      1.42336e+6 
         940.63      1.44608e+6 
         940.74      1.46797e+6 
        940.961      1.51313e+6 
        941.181      1.55525e+6 
        941.401      1.59335e+6 
        941.621      1.62556e+6 
        941.841      1.65452e+6 
        942.062      1.68033e+6 
        942.282      1.70281e+6 
        942.397      1.71253e+6 
        942.502      1.72043e+6 
        942.559      1.72436e+6 
        942.722      1.73394e+6 
        942.884      1.74117e+6 
        943.048      1.74597e+6 
        943.211       1.7483e+6 
        943.373      1.74766e+6 
        943.536      1.74422e+6 
        943.698      1.73794e+6 
        943.861      1.72869e+6 
        944.023      1.71652e+6 
        944.187      1.69795e+6 
        944.349      1.67541e+6 
        944.512      1.64934e+6 
        944.674      1.61964e+6 
        944.691      1.61634e+6 
        944.837      1.58813e+6 
        944.845      1.58647e+6 
        944.999      1.55478e+6 
        945.153      1.52019e+6 
        945.308       1.4829e+6 
        945.462      1.44373e+6 
        945.616       1.4026e+6 
         945.77      1.35926e+6 
        945.924      1.31724e+6 
        946.078      1.28153e+6 
        946.232      1.24421e+6 
        946.541      1.16699e+6 
        946.849      1.08538e+6 
        947.108        1.013e+6 
        947.156          999096 
        947.157          998800 
        947.158          998508 
        947.208          983724 
        947.308          953467 
        947.509          889372 
        947.709          819481 
        947.735          809972 
        947.909          742742 
        948.083          668977 
        948.257          587585 
        948.317          556734 
        948.431          492932 
        948.546          421231 
         948.66          341444 
        948.727          290901 
        948.761          264095 
        948.771          255724 
        948.774          253215 
        948.777          250714 
        948.827          210613 
        948.835          204469 
        948.893          164197 
        948.922          151831 
        948.951          149421 
        948.966          149441 
         948.98          149468 
        948.994          149495 
        949.009          149524 
        949.023          149551 
        949.037          149578 
        949.052          149607 
        949.066          149634 
        949.095          149700 
        949.153          164746 
         949.23          220379 
        949.258          243094 
        949.269          252241 
         949.28          261567 
         949.33          301581 
         949.36          324794 
         949.43          376605 
          949.5          425994 
         949.64          515359 
        949.781          593802 
        949.795          601084 
        949.879          643235 
        949.921          663435 
        949.963          683366 
        950.131          758952 
        950.299          828840 
        950.467          893906 
        950.635          954780 
        950.719          984179 
        950.804      1.01263e+6 
        950.888      1.04051e+6 
        951.056      1.09446e+6 
        951.224      1.14712e+6 
        951.392      1.19852e+6 
        951.728      1.29946e+6 
        951.896      1.34947e+6 
        952.065      1.39836e+6 
        952.233      1.45171e+6 
        952.401      1.51215e+6 
        952.688      1.61318e+6 
        952.737      1.63054e+6 
        952.788      1.64856e+6 
        952.888      1.68359e+6 
        953.089      1.75264e+6 
        953.489       1.8935e+6 
         954.29      2.17977e+6 
         954.69      2.31895e+6 
         955.09      2.45648e+6 
        955.491      2.58999e+6 
        955.768      2.67984e+6 
        955.891      2.71498e+6 
        956.014       2.7486e+6 
         956.26      2.81858e+6 
        956.753      2.95608e+6 
        957.245      3.08699e+6 
        957.738      3.21064e+6 
        958.156      3.30606e+6 
         958.23      3.32223e+6 
        958.439      3.36647e+6 
        958.722      3.42044e+6 
        959.006      3.46791e+6 
        959.289      3.50872e+6 
        959.572      3.53662e+6 
        959.855      3.55801e+6 
        960.139      3.57318e+6 
         960.38      3.58035e+6 
        960.414      3.58094e+6 
        960.422      3.58107e+6 
         960.43      3.58116e+6 
         960.48       3.5823e+6 
         960.58       3.5839e+6 
         960.78      3.58443e+6 
         961.18       3.5741e+6 
        961.581      3.54921e+6 
        961.981      3.50944e+6 
        962.381      3.45462e+6 
        962.782      3.38862e+6 
        963.182      3.31105e+6 
        963.582      3.22434e+6 
        963.735      3.18982e+6 
        963.983       3.1321e+6 
        964.231      3.07129e+6 
        964.401      3.02817e+6 
        964.727      2.94293e+6 
        965.224        2.812e+6 
        966.217      2.54616e+6 
        966.767      2.39943e+6 
          967.4      2.22782e+6 
        968.032      2.05208e+6 
        968.348      1.96062e+6 
        968.665      1.86757e+6 
        968.668      1.86667e+6 
        968.981      1.77126e+6 
        968.983      1.77079e+6 
        969.297      1.67097e+6 
        969.454      1.61846e+6 
        969.611      1.56381e+6 
        969.769      1.50715e+6 
        969.876      1.46712e+6 
        969.927      1.44798e+6 
        969.977      1.42872e+6 
        970.077      1.38918e+6 
        970.277      1.30562e+6 
        970.477      1.21527e+6 
         970.48      1.21386e+6 
        970.677      1.11587e+6 
        970.874      1.00702e+6 
        971.071          884663 
         971.19          800839 
        971.269          738397 
        971.348          668873 
        971.427          591829 
        971.467          549242 
        971.506          505539 
        971.585          410748 
        971.644          334781 
        971.703          261638 
        971.732          230999 
        971.762          208374 
        971.778          201749 
        971.792          199451 
        971.806          199140 
        971.821          199174 
        971.827          199188 
        971.833          199203 
        971.836          199210 
        971.839          199218 
        971.851          199247 
        971.866          199283 
         971.88          199390 
         971.91          205679 
        971.969          255603 
        972.037          340238 
        972.087          405316 
        972.137          467463 
         972.15          483004 
        972.237          581540 
        972.324          668826 
        972.499          815331 
        972.548          851133 
        972.673          934401 
        972.798      1.00928e+6 
        972.923      1.07723e+6 
        973.048      1.14019e+6 
        973.173       1.1984e+6 
        973.298      1.25279e+6 
        973.351      1.27496e+6 
        973.423      1.30433e+6 
        973.548      1.35327e+6 
        973.746      1.42602e+6 
        973.943      1.49492e+6 
         974.14      1.55949e+6 
        974.337       1.6219e+6 
        974.534       1.6839e+6 
        974.731      1.74278e+6 
        974.928      1.79848e+6 
        975.126      1.85468e+6 
          975.4       1.9302e+6 
         975.52      1.96067e+6 
         975.64      1.99117e+6 
         975.88       2.0528e+6 
        976.361      2.17379e+6 
        976.601      2.23641e+6 
        976.841      2.30241e+6 
        977.081      2.37263e+6 
        977.321      2.44721e+6 
        977.802      2.58611e+6 
        978.042      2.65991e+6 
        978.282       2.7312e+6 
        978.522      2.80794e+6 
        978.762       2.8922e+6 
        979.003      2.98731e+6 
        979.181       3.0654e+6 
        979.243      3.09444e+6 
        979.305      3.12459e+6 
        979.429      3.17772e+6 
        979.553      3.23462e+6 
        979.801      3.36044e+6 
        979.925      3.43144e+6 
        980.049       3.4937e+6 
        980.173      3.54774e+6 
        980.298      3.60404e+6 
        980.546      3.72436e+6 
        980.794      3.83796e+6 
        981.042      3.94201e+6 
         981.29       4.0509e+6 
        981.636      4.20157e+6 
        981.787      4.27008e+6 
        982.207      4.45575e+6 
        982.779      4.70482e+6 
        983.066      4.83538e+6 
        983.351      4.97038e+6 
        983.637      5.11508e+6 
        983.923      5.26644e+6 
        984.496      5.56392e+6 
         984.66      5.65198e+6 
         985.64      6.13983e+6 
        986.129      6.39361e+6 
        986.373      6.51632e+6 
        986.618      6.64051e+6 
        986.863      6.74227e+6 
        987.108        6.811e+6 
        987.353      6.87767e+6 
        987.597      6.93972e+6 
        987.842       6.9967e+6 
        987.964      7.02416e+6 
        988.087       7.0508e+6 
        988.209      7.09343e+6 
        988.332      7.14518e+6 
        988.455      7.19594e+6 
        988.577      7.24646e+6 
        988.822      7.34595e+6 
        989.066      7.41039e+6 
        989.262      7.46031e+6 
         989.31      7.47228e+6 
