# Koester WD models
# teff = 15250 K (value for the effective temperature for the model. Temperatures are given in K)
# logg = 9.5 log(cm/s2) (value for Log(G) for the model.)
#
# column 1: WAVELENGTH (ANGSTROM), Wavelength in Angstrom
# column 2: FLUX (ERG/CM2/S/A), Flux in erg/cm2/s/A
         899.23          411715 
        903.027          430125 
        903.632          433113 
        904.235          436116 
        905.444          442170 
        906.478          447407 
        907.859          454472 
         908.45          457516 
        909.241          461619 
        910.032          465744 
        911.193          471833 
        911.613          474032 
        911.824          475125 
        911.929          475669 
        912.034          476212 
        912.139          481151 
        912.244          486095 
        912.349          491103 
        912.454          496139 
        912.559          501166 
        912.664          506158 
         912.77          511084 
        912.875          515906 
        912.886          516402 
        913.037          522978 
        913.085          524982 
        913.284          532732 
        913.531          540703 
        913.649          543021 
        913.736          545352 
        913.779          546354 
        913.822          547184 
        913.994          546222 
        914.165          548145 
        914.336          544680 
        914.439          540244 
        914.507          537570 
        914.575          536917 
        914.712          540112 
        914.848          533948 
        914.897          525768 
        914.984          512431 
        915.071          505969 
        915.245          530006 
        915.419          529233 
        915.544          486787 
        915.594          470494 
        915.609          465845 
        915.643          460042 
        915.677          459072 
        915.745          471129 
        915.881          533310 
        916.017          577447 
        916.153          549798 
        916.289          467356 
        916.379          425563 
        916.421          419019 
        916.425          418950 
        916.429          418982 
        916.479          427863 
         916.58          483783 
         916.68          565832 
         916.78          634338 
         916.88          666545 
         916.98          647165 
         917.08          584352 
         917.18          492489 
        917.182          490685 
         917.28          409887 
        917.378          379608 
        917.575          500748 
        917.771          707810 
        917.967          808049 
        918.163          735076 
        918.359          525821 
         918.51          380770 
        918.556          360488 
        918.602          354155 
        918.694          381895 
        918.878          580893 
        919.062          816333 
        919.201          945623 
        919.241          971267 
        919.246          974041 
        919.251          976727 
        919.301          997999 
        919.402      1.01381e+6 
        919.502          999177 
        919.602          947124 
        919.702          859951 
        919.802          749641 
        919.902          619305 
        920.002          487553 
        920.102          381081 
        920.165          349226 
        920.189          344542 
        920.202          343461 
        920.215          343103 
        920.265          349672 
        920.366          417973 
        920.466          539119 
        920.566          678999 
        920.666          823104 
        920.766          951497 
        920.866      1.06869e+6 
        920.966      1.15995e+6 
        921.066      1.22875e+6 
        921.166      1.27537e+6 
        921.266      1.29717e+6 
        921.367      1.29712e+6 
        921.467       1.2731e+6 
        921.567      1.22269e+6 
        921.667      1.15001e+6 
        921.767      1.05455e+6 
        921.867          936952 
        921.967          809152 
        922.067          665980 
        922.167          520813 
        922.267          400170 
        922.331          354535 
        922.368          345550 
        922.405          343737 
        922.479          355198 
        922.627          504021 
         922.74          670535 
        922.775          722236 
         922.81          776812 
         922.88          877422 
         923.02      1.07295e+6 
         923.16      1.24703e+6 
        923.301      1.40004e+6 
        923.441      1.52065e+6 
        923.581      1.61045e+6 
        923.721      1.66923e+6 
        923.861      1.70088e+6 
        924.001      1.70773e+6 
        924.141      1.68725e+6 
        924.282      1.63679e+6 
        924.422      1.55355e+6 
        924.562      1.43731e+6 
        924.702      1.29111e+6 
        924.842      1.12677e+6 
        924.982          934391 
        925.122          727828 
        925.262          512073 
        925.322          432208 
        925.403          363774 
        925.484          353856 
        925.646          433936 
        925.808          676495 
         925.97          926657 
        926.132      1.16294e+6 
         926.22      1.28032e+6 
        926.295      1.37482e+6 
        926.369      1.46847e+6 
        926.517      1.64074e+6 
        926.665      1.78996e+6 
        926.813      1.91886e+6 
        926.961      2.02592e+6 
        927.109      2.11163e+6 
        927.257       2.1804e+6 
        927.406       2.2325e+6 
        927.554      2.26763e+6 
        927.702      2.28787e+6 
         927.85      2.29339e+6 
        927.998      2.28356e+6 
        928.038      2.27755e+6 
         928.11      2.26033e+6 
        928.146      2.24971e+6 
        928.182      2.23774e+6 
        928.327      2.17592e+6 
        928.471      2.09424e+6 
        928.615      1.98995e+6 
        928.717      1.90264e+6 
        928.759      1.86327e+6 
        928.903      1.73516e+6 
        928.917      1.72164e+6 
        929.089      1.54319e+6 
        929.261      1.33354e+6 
        929.325      1.25208e+6 
        929.434      1.09909e+6 
        929.543          937677 
        929.652          764701 
        929.719          655154 
        929.753          599366 
        929.755          596017 
        929.761          586014 
        929.769          572772 
        929.819          493591 
        929.827          481785 
        929.883          411275 
         929.91          388807 
        929.939          376517 
        929.954          374500 
        929.968          373708 
        929.982          373564 
        929.996          373557 
         930.01          373604 
        930.024          373686 
        930.038          373821 
        930.052          374095 
        930.081          377176 
        930.137          412554 
        930.201          495863 
        930.247          569389 
        930.249          572719 
        930.251          576061 
        930.301          659665 
        930.326          699205 
        930.402          826286 
        930.478          948123 
         930.63      1.17926e+6 
        930.633      1.18374e+6 
        930.782      1.39045e+6 
        930.931      1.58535e+6 
         931.08      1.76001e+6 
        931.229      1.92246e+6 
        931.379      2.08938e+6 
        931.528      2.24657e+6 
        931.677      2.39053e+6 
        931.788      2.49027e+6 
        931.814      2.51285e+6 
        931.826      2.52313e+6 
        931.838       2.5333e+6 
        931.888      2.57484e+6 
        931.988      2.65313e+6 
        932.188      2.77956e+6 
        932.389      2.88791e+6 
        932.589         2.98e+6 
        932.789      3.05392e+6 
        932.989      3.10813e+6 
        933.189      3.14989e+6 
        933.347      3.17379e+6 
        933.375      3.17712e+6 
        933.377      3.17734e+6 
        933.389      3.17869e+6 
        933.403       3.1802e+6 
        933.432      3.18284e+6 
         933.46      3.18517e+6 
        933.542      3.19029e+6 
        933.652      3.19305e+6 
        933.762      3.19079e+6 
        933.872      3.18331e+6 
        933.982      3.16883e+6 
        934.092      3.14627e+6 
        934.202      3.11681e+6 
        934.312      3.08012e+6 
        934.413      3.04149e+6 
        934.422      3.03801e+6 
        934.533       2.9916e+6 
        934.652      2.93322e+6 
        934.771      2.86638e+6 
         934.89       2.7914e+6 
        935.009      2.70665e+6 
        935.026      2.69378e+6 
        935.128      2.61696e+6 
         935.23       2.5432e+6 
        935.332      2.46474e+6 
        935.434      2.38235e+6 
        935.537      2.29579e+6 
        935.639      2.20491e+6 
        935.741      2.10943e+6 
        935.843      2.00783e+6 
        935.945      1.89947e+6 
         935.95      1.89394e+6 
        936.047      1.78373e+6 
        936.144      1.66703e+6 
        936.338      1.41461e+6 
        936.464      1.23461e+6 
        936.532      1.13037e+6 
        936.601      1.02065e+6 
        936.645          947617 
        936.714          828620 
        936.737          788709 
        936.829          628485 
        936.887          527178 
        936.944          445899 
        936.973          419525 
        937.001          408272 
        937.015          407204 
        937.029          407009 
        937.043          407056 
        937.058          407125 
        937.072          407194 
        937.086          407264 
        937.101          407342 
        937.115          407433 
        937.143          408973 
         937.15          410543 
        937.186          432673 
        937.199          446188 
         937.25          518086 
        937.314          630263 
        937.341          678612 
        937.442          856621 
        937.543      1.03141e+6 
        937.645      1.19665e+6 
        937.746      1.35123e+6 
        937.847      1.49477e+6 
        937.896      1.56336e+6 
        937.948      1.63393e+6 
            938      1.70238e+6 
        938.104      1.83495e+6 
        938.208      1.96088e+6 
        938.312      2.08048e+6 
        938.416      2.19414e+6 
         938.52      2.30272e+6 
        938.624       2.4088e+6 
        938.752      2.53404e+6 
        938.833      2.61287e+6 
        938.881      2.65892e+6 
        938.914      2.69021e+6 
        939.076      2.84363e+6 
        939.271      3.03962e+6 
        939.466      3.22148e+6 
        939.661      3.39283e+6 
        939.857      3.55905e+6 
        940.052      3.72194e+6 
        940.247      3.87157e+6 
        940.442      4.00396e+6 
        940.534      4.06315e+6 
        940.637       4.1268e+6 
         940.74      4.18781e+6 
        940.947      4.30009e+6 
        941.153      4.40238e+6 
        941.359      4.49509e+6 
        941.565      4.57117e+6 
        941.771      4.64063e+6 
        941.978      4.70344e+6 
        942.184       4.7598e+6 
         942.39      4.80767e+6 
        942.596      4.84701e+6 
        942.802      4.87836e+6 
        942.891      4.88932e+6 
        942.969      4.89768e+6 
        943.009      4.90139e+6 
        943.048      4.90478e+6 
        943.204      4.91496e+6 
         943.36      4.91653e+6 
        943.516      4.91128e+6 
        943.672      4.89913e+6 
        943.828      4.87968e+6 
        943.984      4.85266e+6 
        944.141      4.81594e+6 
        944.297      4.76953e+6 
        944.453      4.71415e+6 
        944.609      4.64949e+6 
        944.765      4.57614e+6 
        944.847      4.53822e+6 
        945.077      4.41975e+6 
        945.308      4.28366e+6 
        945.538      4.13562e+6 
        945.768      3.97135e+6 
        945.998      3.80001e+6 
        946.228      3.62537e+6 
        946.459      3.44928e+6 
         946.68      3.27637e+6 
        946.689      3.26908e+6 
        946.919      3.07978e+6 
        947.039      2.97689e+6 
        947.158      2.87155e+6 
        947.277      2.76223e+6 
        947.397      2.64884e+6 
        947.517      2.53131e+6 
        947.637      2.40858e+6 
        947.669      2.37458e+6 
        947.756      2.27939e+6 
        947.772      2.26166e+6 
        947.876      2.14161e+6 
        947.979      2.01376e+6 
        948.083      1.87876e+6 
        948.187      1.73553e+6 
         948.29      1.58407e+6 
        948.394      1.42221e+6 
        948.449      1.33025e+6 
        948.497      1.24782e+6 
        948.506      1.23209e+6 
        948.546      1.16202e+6 
        948.642          983099 
        948.661          946543 
        948.777          723534 
        948.835          608954 
        948.893          512529 
        948.922          481490 
        948.951          469630 
        948.966          469200 
         948.98          469250 
        948.994          469326 
        949.009          469410 
        949.023          469486 
        949.037          469564 
        949.052          469646 
        949.066          469725 
        949.095          470425 
        949.153          514081 
         949.23          648186 
        949.258          705976 
        949.269          727546 
         949.28          749330 
         949.33          847118 
         949.36          905564 
         949.43      1.04188e+6 
          949.5      1.17397e+6 
         949.64      1.42165e+6 
        949.781      1.64662e+6 
        949.795       1.6678e+6 
        949.879      1.79453e+6 
        949.921      1.85555e+6 
        949.963      1.91526e+6 
        950.131      2.14196e+6 
        950.299      2.34955e+6 
        950.467       2.5417e+6 
        950.635      2.72309e+6 
        950.719      2.81109e+6 
        950.804      2.89745e+6 
        950.888      2.98205e+6 
        951.056      3.14722e+6 
        951.224      3.30832e+6 
        951.392      3.46584e+6 
        951.728      3.77305e+6 
        952.065      4.09525e+6 
        952.401      4.42751e+6 
        952.688      4.70526e+6 
        952.737       4.7538e+6 
        952.788      4.80428e+6 
        952.888       4.9029e+6 
        953.089      5.09849e+6 
        953.489      5.49873e+6 
        953.889      5.90447e+6 
         954.29      6.29016e+6 
         954.49      6.47605e+6 
         954.69      6.65839e+6 
         954.89      6.83058e+6 
         955.09      6.98508e+6 
         955.29      7.13531e+6 
        955.491      7.28193e+6 
        955.691      7.42679e+6 
        955.768      7.48117e+6 
        955.891      7.56266e+6 
        956.014      7.64183e+6 
         956.26      7.79838e+6 
        956.753      8.09827e+6 
        957.245      8.38277e+6 
        957.738      8.64598e+6 
        958.156      8.85376e+6 
         958.23      8.88923e+6 
        958.722      9.10977e+6 
        959.289      9.32673e+6 
        959.855       9.5015e+6 
         960.38       9.6227e+6 
        960.414      9.62904e+6 
        960.422      9.63052e+6 
         960.43      9.63197e+6 
         960.48      9.64236e+6 
         960.58      9.66187e+6 
         960.78      9.69574e+6 
         961.18      9.74082e+6 
        961.581      9.75505e+6 
        961.981      9.73639e+6 
        962.381      9.68333e+6 
        962.782      9.59584e+6 
        963.182      9.46923e+6 
        963.582      9.30829e+6 
        963.735      9.23744e+6 
        963.983      9.11131e+6 
        964.231      8.97387e+6 
        964.727      8.67491e+6 
        965.224      8.33364e+6 
         965.72      7.95979e+6 
        966.217      7.56122e+6 
        966.713      7.15202e+6 
        967.209      6.72866e+6 
        967.379      6.58336e+6 
        967.706      6.29924e+6 
        968.032      6.01348e+6 
        968.072      5.97735e+6 
        968.378      5.69938e+6 
        968.685      5.41601e+6 
        968.991      5.12243e+6 
        969.297      4.81653e+6 
        969.603      4.49219e+6 
        969.858      4.20584e+6 
        969.893      4.16629e+6 
         969.91      4.14621e+6 
        969.927      4.12607e+6 
        969.995       4.0448e+6 
        970.131      3.87704e+6 
        970.267      3.70281e+6 
        970.403      3.52053e+6 
        970.476      3.41865e+6 
        970.539      3.32867e+6 
        970.675      3.12536e+6 
        970.874      2.79976e+6 
        971.073      2.43331e+6 
        971.198      2.17366e+6 
        971.273      2.00083e+6 
        971.348      1.81403e+6 
        971.411      1.64576e+6 
        971.467      1.48642e+6 
        971.498      1.39506e+6 
        971.585       1.1262e+6 
        971.644          941265 
        971.703          768569 
        971.732          696523 
        971.762          638975 
        971.778          619396 
        971.792          610678 
        971.806          608690 
        971.821          608737 
        971.827          608778 
        971.833          608819 
        971.836          608838 
        971.839          608860 
        971.851          608938 
        971.866          609042 
         971.88          609827 
         971.91          631435 
        971.969          754692 
        972.037          954447 
        972.087      1.11277e+6 
        972.137       1.2707e+6 
         972.15      1.31155e+6 
        972.237      1.57231e+6 
        972.324      1.81128e+6 
        972.499      2.22876e+6 
        972.548      2.33295e+6 
        972.673      2.57694e+6 
        972.798      2.79731e+6 
        972.923      2.99677e+6 
        973.048      3.18111e+6 
        973.173       3.3512e+6 
        973.298      3.51079e+6 
        973.423       3.6636e+6 
        973.548      3.80874e+6 
        973.601      3.86853e+6 
        973.673      3.94798e+6 
        973.746      4.02611e+6 
         973.89      4.17879e+6 
        974.034       4.3249e+6 
        974.178      4.46477e+6 
        974.466      4.73884e+6 
        974.754      5.00236e+6 
        975.043      5.25259e+6 
        975.331      5.50313e+6 
        975.556      5.67761e+6 
        975.598      5.71025e+6 
        975.619      5.72662e+6 
         975.64      5.74296e+6 
        975.724      5.80855e+6 
        975.892      5.94135e+6 
        976.228      6.19921e+6 
        976.565      6.46474e+6 
        976.901      6.75012e+6 
        977.237      7.06902e+6 
        977.574      7.37382e+6 
         977.91      7.70322e+6 
        978.246      8.02947e+6 
        978.414       8.2038e+6 
        978.582      8.38934e+6 
         978.75      8.59292e+6 
        978.919      8.81468e+6 
        979.087      9.05508e+6 
        979.105      9.08219e+6 
        979.205      9.23845e+6 
        979.255      9.32045e+6 
        979.305      9.40643e+6 
        979.505      9.71506e+6 
        979.705      1.00556e+7 
        979.905      1.04476e+7 
        980.105      1.07893e+7 
        980.306      1.11035e+7 
        980.506      1.14409e+7 
        980.706      1.17875e+7 
        980.906      1.20731e+7 
        981.106      1.23672e+7 
        981.506      1.29627e+7 
        982.307      1.41404e+7 
        983.863      1.64717e+7 
        983.893      1.65213e+7 
        983.908      1.65462e+7 
        983.923      1.65711e+7 
        983.983      1.66742e+7 
        984.103      1.68704e+7 
        984.344      1.72467e+7 
        984.824       1.8007e+7 
        984.951      1.81971e+7 
        985.785       1.9466e+7 
        986.202      2.01003e+7 
         986.41      2.04053e+7 
        986.618      2.07112e+7 
        986.826      2.09665e+7 
        987.035      2.11354e+7 
        987.244      2.12985e+7 
        987.452      2.14581e+7 
         987.66      2.16027e+7 
        987.868      2.17414e+7 
        988.077      2.18747e+7 
