# Koester WD models
# teff = 15250 K (value for the effective temperature for the model. Temperatures are given in K)
# logg = 8.75 log(cm/s2) (value for Log(G) for the model.)
#
# column 1: WAVELENGTH (ANGSTROM), Wavelength in Angstrom
# column 2: FLUX (ERG/CM2/S/A), Flux in erg/cm2/s/A
         899.23          284704 
        904.235          302219 
         908.45          317615 
        909.241          320571 
        910.032          323543 
        911.193          327957 
        911.613          329550 
        911.824          330342 
        911.929          330734 
        912.034          331127 
        912.139          338051 
        912.244          345088 
        912.349          352213 
        912.454          359448 
        912.559          366740 
        912.664          374063 
         912.77          381443 
        912.875          388593 
        912.886          389316 
         912.98          395068 
        913.085          399827 
        913.284          405024 
        913.339          405118 
        913.435          404713 
        913.483          405353 
        913.531          406161 
        913.625          405630 
        913.724          400880 
        913.822          398558 
        913.871          399799 
        914.018          395838 
        914.165          373862 
        914.312          398866 
        914.343          401618 
        914.459          369379 
        914.575          336917 
        914.692          375486 
        914.808          414276 
        914.924          367428 
        915.009          314178 
         915.04          302952 
        915.071          299597 
        915.133          316126 
        915.257          406048 
        915.381          447130 
        915.505          370058 
        915.609          289825 
        915.617          286257 
         915.63          280163 
        915.643          276084 
        915.677          271565 
        915.745          291269 
        915.881          418972 
        916.017          511071 
        916.153          471305 
        916.289          334020 
        916.379          263349 
        916.421          254131 
        916.425          253979 
        916.429          253936 
        916.479          263841 
         916.58          348805 
         916.68          472813 
         916.78          573884 
         916.88          619830 
         916.98          601508 
         917.08          522249 
         917.18          401357 
        917.182          398593 
         917.28          282021 
        917.378          244030 
        917.575          404408 
        917.771          658993 
        917.967          773865 
        918.163          700051 
        918.359          467167 
         918.51          270079 
        918.556          245503 
        918.602          240368 
        918.694          270765 
        918.878          524099 
        919.062          779241 
        919.201          913588 
        919.241          939588 
        919.246          942465 
        919.251          945261 
        919.301          967105 
        919.402          984371 
        919.502          970372 
        919.602          920421 
        919.702          837508 
        919.802          721545 
        919.902          585964 
        920.002          435689 
        920.102          287346 
        920.165          245842 
        920.189          242649 
        920.202          242057 
        920.215          241910 
        920.265          246162 
        920.366          339446 
        920.466          495599 
        920.566          648312 
        920.666          793918 
        920.766          921690 
        920.866      1.03088e+6 
        920.966      1.11539e+6 
        921.066      1.17684e+6 
        921.166      1.21688e+6 
        921.266      1.23563e+6 
        921.367      1.23613e+6 
        921.467      1.21624e+6 
        921.567      1.17421e+6 
        921.667      1.10959e+6 
        921.767      1.02113e+6 
        921.867          913578 
        921.967          787673 
        922.067          642453 
        922.167          485298 
        922.267          324439 
        922.331          257152 
        922.368          248334 
        922.405          247583 
        922.479          257643 
        922.627          464620 
         922.67          533521 
         922.74          646279 
        922.775          699623 
         922.81          753835 
         922.95          949006 
         923.09      1.11998e+6 
         923.23      1.26519e+6 
        923.371      1.38196e+6 
        923.511      1.47094e+6 
        923.651      1.53349e+6 
        923.791      1.57199e+6 
        923.931      1.58984e+6 
        924.071      1.58612e+6 
        924.211      1.55637e+6 
        924.352      1.49999e+6 
        924.492      1.41282e+6 
        924.632       1.3001e+6 
        924.772       1.1658e+6 
        924.912      1.00293e+6 
        925.052          816899 
        925.192          596350 
        925.333          354133 
        925.434          258020 
        925.462          257264 
        925.473          257267 
        925.484          257294 
        925.534          258351 
        925.634          353847 
        925.734          529233 
        925.834          698436 
        925.934          854438 
        926.034          993497 
        926.134        1.123e+6 
        926.232      1.23906e+6 
        926.234      1.24131e+6 
        926.301      1.31358e+6 
        926.335      1.34961e+6 
        926.369      1.38447e+6 
        926.505      1.52255e+6 
        926.641       1.6444e+6 
        926.777      1.74851e+6 
        926.913      1.83641e+6 
        927.049      1.90552e+6 
        927.185      1.96195e+6 
        927.322      2.00707e+6 
        927.458      2.04225e+6 
        927.594      2.06505e+6 
         927.73      2.07886e+6 
        927.866        2.082e+6 
        928.002      2.07456e+6 
        928.006      2.07417e+6 
        928.094      2.05906e+6 
        928.138       2.0485e+6 
        928.182      2.03618e+6 
        928.359      1.96837e+6 
        928.535      1.86905e+6 
        928.711      1.75067e+6 
        928.887      1.62067e+6 
        928.985      1.54118e+6 
        929.037      1.49583e+6 
        929.063      1.47235e+6 
        929.089      1.44836e+6 
        929.125      1.41393e+6 
        929.193      1.34519e+6 
        929.261      1.27223e+6 
        929.398      1.11088e+6 
        929.493          985684 
        929.525          940866 
        929.534          927832 
        929.543          914662 
        929.593          839710 
        929.617          801901 
        929.655          739946 
        929.693          676152 
        929.769          540690 
        929.827          432792 
        929.883          334774 
         929.91          296796 
        929.939          275751 
        929.954          272980 
        929.968          272460 
        929.982          272449 
        929.996          272489 
         930.01          272537 
        930.024          272586 
        930.038          272642 
        930.052          272750 
        930.081          276247 
        930.137          335833 
        930.201          449879 
        930.247          536264 
        930.249          540033 
        930.251          543803 
        930.301          635557 
        930.326          677720 
        930.402          806064 
        930.478          924781 
         930.63      1.13698e+6 
        930.633      1.14092e+6 
        930.782       1.3238e+6 
        930.931      1.48713e+6 
         931.08      1.63404e+6 
        931.229      1.76932e+6 
        931.379      1.90804e+6 
        931.516      2.03435e+6 
        931.677      2.17607e+6 
        931.838      2.30263e+6 
        931.999      2.41296e+6 
         932.16      2.49541e+6 
        932.321      2.56849e+6 
        932.483      2.63022e+6 
        932.644       2.6849e+6 
        932.805      2.73049e+6 
        932.966      2.76749e+6 
        933.127       2.7979e+6 
        933.173       2.8054e+6 
        933.265      2.81881e+6 
        933.288       2.8218e+6 
        933.403      2.83461e+6 
        933.432      2.83711e+6 
        933.542      2.84462e+6 
        933.652      2.84847e+6 
        933.762      2.84864e+6 
        933.872      2.84472e+6 
        933.982        2.834e+6 
        934.092      2.81516e+6 
        934.202      2.79027e+6 
        934.312      2.75906e+6 
        934.413       2.7254e+6 
        934.422      2.72226e+6 
        934.533      2.68016e+6 
        934.652        2.627e+6 
        934.771      2.56625e+6 
         934.89      2.49903e+6 
        935.009      2.42364e+6 
        935.026      2.41219e+6 
        935.128      2.34656e+6 
         935.23      2.28608e+6 
        935.332      2.22165e+6 
        935.434      2.15305e+6 
        935.537      2.07984e+6 
        935.639      2.00252e+6 
        935.741      1.92281e+6 
        935.746      1.91877e+6 
        935.843      1.83733e+6 
        935.945      1.74603e+6 
        936.144      1.55139e+6 
        936.343      1.33649e+6 
        936.484      1.15947e+6 
        936.542      1.07856e+6 
        936.601          991370 
        936.605          985119 
        936.717          799887 
        936.829          593177 
        936.894          462694 
        936.938          376463 
        936.941          371308 
        936.944          366209 
        936.973          319616 
        936.987          305824 
        936.994          301725 
        937.001          299388 
        937.015          297770 
        937.029          297628 
        937.043          297673 
        937.058          297729 
        937.072          297781 
        937.086          297832 
        937.101          297888 
        937.115          297947 
        937.143          299917 
         937.15          302311 
        937.186          342553 
        937.199          365666 
         937.25          464660 
        937.314          594540 
        937.341          648396 
        937.442          832956 
        937.543      1.00182e+6 
        937.645      1.15345e+6 
        937.746      1.28987e+6 
        937.847      1.41254e+6 
        937.896      1.46927e+6 
        937.948      1.52729e+6 
            938      1.58342e+6 
        938.104      1.69436e+6 
        938.208      1.79998e+6 
        938.312      1.90067e+6 
        938.416      1.99598e+6 
         938.52      2.08666e+6 
        938.543      2.10663e+6 
        938.729      2.26313e+6 
        938.914      2.40995e+6 
        938.927      2.41996e+6 
        939.099       2.5569e+6 
        939.271      2.70847e+6 
        939.443      2.85273e+6 
        939.615      2.99021e+6 
        939.788       3.1202e+6 
         939.96      3.24888e+6 
        940.132      3.36996e+6 
        940.304      3.47699e+6 
        940.476      3.57252e+6 
        940.556      3.61547e+6 
        940.648      3.66347e+6 
         940.74      3.70997e+6 
        940.925      3.80305e+6 
        941.109      3.89124e+6 
        941.293      3.97399e+6 
        941.477      4.04486e+6 
        941.661      4.10861e+6 
        941.845      4.16745e+6 
         942.03      4.22095e+6 
        942.214      4.26924e+6 
        942.398      4.30948e+6 
        942.485      4.32597e+6 
        942.582      4.34262e+6 
        942.766      4.36886e+6 
        943.048      4.39452e+6 
        943.188      4.40052e+6 
        943.329      4.40074e+6 
        943.469      4.39543e+6 
         943.61      4.38469e+6 
         943.75      4.36832e+6 
        943.891      4.34636e+6 
        944.031      4.31865e+6 
        944.173      4.27963e+6 
        944.313      4.23326e+6 
        944.454       4.1802e+6 
        944.594      4.12073e+6 
        944.725      4.05994e+6 
        944.735      4.05504e+6 
         944.87      3.99218e+6 
        945.016       3.9197e+6 
        945.161       3.8416e+6 
        945.308      3.75738e+6 
        945.454       3.6679e+6 
        945.599      3.57366e+6 
        945.745      3.47407e+6 
         945.89      3.37105e+6 
        946.036      3.28406e+6 
        946.181      3.19503e+6 
        946.473      3.01508e+6 
        946.764      2.82897e+6 
        946.952      2.70315e+6 
        947.055      2.63159e+6 
        947.158      2.55875e+6 
        947.261      2.48356e+6 
        947.364      2.40553e+6 
        947.468       2.3245e+6 
        947.571      2.24026e+6 
        947.674      2.15182e+6 
        947.777      2.05854e+6 
         947.88      1.95933e+6 
        947.883      1.95636e+6 
        947.983      1.85373e+6 
        948.083      1.74565e+6 
        948.183        1.632e+6 
        948.283      1.50949e+6 
        948.383      1.37547e+6 
        948.421      1.32013e+6 
        948.483      1.22587e+6 
        948.546      1.12386e+6 
        948.563      1.09467e+6 
         948.67          898643 
        948.777          680893 
        948.843          533373 
        948.875          460190 
        948.884          440897 
        948.893          423103 
        948.922          367381 
        948.935          352147 
        948.943          347228 
        948.951          345220 
        948.966          344472 
         948.98          344510 
        948.994          344567 
        949.009          344630 
        949.023          344689 
        949.037          344746 
        949.052          344809 
        949.066          344868 
        949.095          345820 
        949.153          424407 
         949.23          596824 
        949.258          660196 
        949.269          684682 
         949.28          709061 
         949.33          813918 
         949.36          874239 
         949.43      1.00925e+6 
          949.5      1.13545e+6 
         949.64      1.36132e+6 
        949.781      1.55655e+6 
        949.795      1.57464e+6 
        949.879      1.68028e+6 
        949.921      1.73057e+6 
        949.963      1.77984e+6 
        950.131      1.96825e+6 
        950.299      2.14099e+6 
        950.467      2.29981e+6 
        950.635      2.44803e+6 
        950.719       2.5194e+6 
        950.804      2.58885e+6 
        950.888      2.65666e+6 
        951.056      2.78888e+6 
        951.224      2.91779e+6 
        951.392      3.04354e+6 
        951.728      3.28874e+6 
        951.896      3.41475e+6 
        952.065      3.54039e+6 
        952.233      3.67607e+6 
        952.401      3.82545e+6 
        952.688      4.07424e+6 
        952.737      4.11652e+6 
        952.788      4.16038e+6 
        952.888      4.24599e+6 
        953.089      4.41579e+6 
        953.489      4.76796e+6 
        953.889      5.13707e+6 
         954.29      5.48921e+6 
         954.69      5.83504e+6 
        954.967      6.06356e+6 
         955.09      6.16013e+6 
        955.228      6.26716e+6 
        955.491      6.46555e+6 
        955.752      6.65813e+6 
        956.014      6.82662e+6 
        956.537      7.17527e+6 
        957.061       7.5004e+6 
        957.584      7.79866e+6 
        957.974      8.00069e+6 
        958.108      8.06654e+6 
        958.302      8.15824e+6 
        958.631      8.30172e+6 
         958.96      8.42999e+6 
        959.289      8.54202e+6 
        959.463      8.59446e+6 
        959.618      8.63693e+6 
        959.946      8.71506e+6 
         960.43      8.79655e+6 
        960.671      8.83843e+6 
        960.913      8.86705e+6 
        961.154      8.88182e+6 
        961.397      8.88298e+6 
        961.638      8.86922e+6 
         961.88      8.84126e+6 
        962.121      8.79951e+6 
        962.363      8.74274e+6 
        962.605      8.67287e+6 
        962.847      8.58924e+6 
        963.088      8.49103e+6 
         963.33      8.38174e+6 
        963.571      8.26035e+6 
         963.88      8.09127e+6 
        964.055      7.98898e+6 
        964.231      7.88006e+6 
        964.582      7.65546e+6 
        964.934      7.41677e+6 
        965.285      7.16899e+6 
        965.348        7.124e+6 
        965.987       6.6521e+6 
         966.69       6.1328e+6 
        966.767      6.07474e+6 
          967.4      5.60762e+6 
        968.032      5.14291e+6 
        968.348      4.90544e+6 
        968.665      4.66643e+6 
        968.668      4.66413e+6 
        968.981      4.42003e+6 
        968.983      4.41884e+6 
        969.297      4.16559e+6 
        969.611      3.89953e+6 
        969.876      3.66439e+6 
        969.927      3.61845e+6 
        969.977      3.57152e+6 
        970.077      3.47545e+6 
        970.277       3.2736e+6 
        970.477       3.0563e+6 
         970.48       3.0529e+6 
        970.677      2.81761e+6 
        970.874      2.55419e+6 
        971.071      2.25597e+6 
         971.19      2.05213e+6 
        971.269      1.89927e+6 
        971.348      1.72977e+6 
        971.427      1.53925e+6 
        971.467      1.43313e+6 
        971.506      1.32392e+6 
        971.585      1.08228e+6 
        971.644          887575 
        971.703          688160 
        971.732          595024 
        971.762          511938 
        971.778          478289 
        971.792          458874 
        971.806          450847 
        971.821          450168 
        971.827          450200 
        971.833          450231 
        971.836          450247 
        971.839          450262 
        971.851          450322 
        971.866          450489 
         971.88          454513 
         971.91          498970 
        971.969          670080 
        972.037          901301 
        972.087      1.06814e+6 
        972.137      1.22685e+6 
         972.15      1.26648e+6 
        972.237      1.51325e+6 
        972.324      1.72871e+6 
        972.499      2.08617e+6 
        972.548       2.1731e+6 
        972.673      2.37517e+6 
        972.798      2.55685e+6 
        972.923      2.72131e+6 
        973.048      2.87183e+6 
        973.173      3.01047e+6 
        973.298       3.1396e+6 
        973.351      3.19242e+6 
        973.423      3.26217e+6 
        973.548      3.37831e+6 
        973.746      3.55148e+6 
        973.943      3.71619e+6 
         974.14      3.86934e+6 
        974.337      4.01904e+6 
        974.731      4.31174e+6 
        975.126      4.58902e+6 
          975.4      4.77704e+6 
         975.52      4.85288e+6 
         975.64      4.92932e+6 
         975.88      5.08413e+6 
        976.361      5.38815e+6 
        976.601      5.54708e+6 
        976.841      5.71559e+6 
        977.081      5.89715e+6 
        977.321      6.09108e+6 
        977.802      6.45644e+6 
        978.042      6.65355e+6 
        978.282       6.8455e+6 
        978.522      7.05313e+6 
        978.762      7.28268e+6 
        979.003      7.54155e+6 
        979.181      7.75612e+6 
        979.243      7.83702e+6 
        979.305      7.92131e+6 
        979.429      8.06877e+6 
        979.553      8.22557e+6 
        979.677      8.39349e+6 
        979.801      8.57451e+6 
        979.925      8.77029e+6 
        980.049      8.94022e+6 
        980.173      9.08985e+6 
        980.298      9.24634e+6 
        980.422      9.41165e+6 
        980.546      9.58541e+6 
        980.794      9.89831e+6 
        981.042      1.01828e+7 
         981.29      1.04822e+7 
        981.636      1.08878e+7 
        981.787      1.10701e+7 
        982.207       1.1571e+7 
        982.779       1.2246e+7 
        983.066      1.25941e+7 
        983.351      1.29505e+7 
        983.637      1.33302e+7 
        983.923       1.3726e+7 
        984.496      1.44885e+7 
         984.66      1.47129e+7 
        985.067      1.52243e+7 
