# Koester WD models
# teff = 15000 K (value for the effective temperature for the model. Temperatures are given in K)
# logg = 9.25 log(cm/s2) (value for Log(G) for the model.)
#
# column 1: WAVELENGTH (ANGSTROM), Wavelength in Angstrom
# column 2: FLUX (ERG/CM2/S/A), Flux in erg/cm2/s/A
         899.23          308184 
        902.073          318828 
        903.154          322953 
        903.554          324492 
        904.235          327118 
        906.398          335576 
         908.45          343759 
        909.241          346951 
        910.032          350162 
        911.193          354909 
        911.613          356627 
        911.824          357482 
        911.929          357906 
        912.034          358330 
        912.139          362691 
        912.244          367086 
        912.349          371509 
        912.454          375958 
        912.559          380422 
        912.664          384886 
         912.77          389322 
        912.875          393657 
        912.886          394103 
        913.085          401593 
        913.284          408127 
        913.339          409519 
        913.435          411973 
        913.483          413342 
        913.531          414351 
        913.625          415344 
        913.724          416691 
        913.822          418589 
        913.871          418576 
        914.018          415532 
        914.165          415824 
        914.312          414228 
        914.343          413116 
        914.459          405064 
        914.575          400189 
        914.692          407198 
        914.808          410082 
        914.924          390528 
        915.009          374126 
         915.04          371063 
        915.071          370183 
        915.133          376099 
        915.257          406761 
        915.381          418818 
        915.505          377198 
        915.609          342239 
        915.617          340838 
         915.63          338434 
        915.643          336553 
        915.677          334966 
        915.745          345415 
        915.881          410034 
        916.017          461132 
        916.153          434404 
        916.289          352512 
        916.379          314103 
        916.421          308530 
        916.425          308451 
        916.429          308452 
        916.479          315237 
         916.58          364261 
         916.68          443583 
         916.78          512117 
         916.88          544334 
         916.98          528837 
         917.08          471952 
         917.18          386674 
        917.182          384880 
         917.28          311255 
        917.378          287798 
        917.575          391571 
        917.771          578600 
        917.967          668386 
        918.163          608706 
        918.359          427524 
         918.51          295956 
        918.556          280257 
        918.602          276291 
        918.694          296760 
        918.878          473859 
        919.062          675826 
        919.201          782778 
        919.241          803635 
        919.246          805910 
        919.251          808115 
        919.301          825344 
        919.402          838532 
        919.502          827370 
        919.602          786692 
        919.702          718457 
        919.802          625667 
        919.902          516079 
        920.002          400173 
        920.102          301479 
        920.165          276777 
        920.189          273777 
        920.202          273215 
        920.215          273045 
        920.265          277134 
        920.366          335469 
        920.466          445735 
        920.566          566181 
        920.666          685970 
        920.866          879379 
        921.066      1.00106e+6 
        921.266      1.05283e+6 
        921.467      1.03556e+6 
        921.667          944696 
        921.867          782310 
        922.067          560498 
         922.13          482181 
        922.267          323546 
        922.405          276991 
        922.542          324693 
        922.548          330552 
        922.679          486083 
         922.81          652669 
        922.941          803120 
        923.072          938475 
        923.203      1.05433e+6 
        923.335      1.15615e+6 
        923.466      1.23661e+6 
        923.597      1.29671e+6 
        923.728      1.33662e+6 
        923.859      1.35937e+6 
         923.99      1.36556e+6 
        924.121      1.35392e+6 
        924.252      1.32239e+6 
        924.384      1.26975e+6 
        924.515       1.1941e+6 
        924.646      1.09964e+6 
        924.777          990880 
        924.908          862713 
        925.039          719893 
         925.17          553633 
        925.302          378804 
        925.382          301471 
        925.433          287811 
        925.484          286968 
        925.586          302251 
        925.688          408929 
         925.79          548748 
        925.892          683837 
        925.994          806519 
        926.096          919905 
        926.198      1.02592e+6 
        926.232      1.05859e+6 
        926.301      1.12345e+6 
        926.369      1.18691e+6 
        926.505      1.30858e+6 
        926.641      1.41586e+6 
        926.777      1.50958e+6 
        926.913      1.58954e+6 
        927.049      1.65404e+6 
        927.185      1.70752e+6 
        927.322      1.75014e+6 
        927.458      1.78279e+6 
        927.594      1.80382e+6 
         927.73      1.81638e+6 
        927.866      1.81946e+6 
        928.002      1.81283e+6 
        928.006      1.81247e+6 
        928.094      1.79905e+6 
        928.138      1.78969e+6 
        928.182      1.77865e+6 
        928.359      1.71827e+6 
        928.535      1.63155e+6 
        928.711      1.52205e+6 
        928.887      1.40294e+6 
        928.985      1.33069e+6 
        929.037      1.28951e+6 
        929.063      1.26836e+6 
        929.089      1.24688e+6 
        929.125      1.21615e+6 
        929.193       1.1549e+6 
        929.261      1.09123e+6 
        929.398          954177 
        929.493          848909 
        929.525          811310 
        929.534          800525 
        929.543          789677 
        929.593          727329 
        929.617          695900 
        929.655          644447 
        929.693          592178 
        929.769          483394 
        929.827          401156 
        929.883          335352 
         929.91          314945 
        929.939          304993 
        929.954          303905 
        929.968          303604 
        929.982          303602 
        929.996          303644 
         930.01          303694 
        930.024          303751 
        930.038          303815 
        930.052          303924 
        930.081          305537 
        930.137          336414 
        930.201          413958 
        930.247          480177 
        930.249          483193 
        930.251          486209 
        930.301          559640 
        930.326          593830 
        930.402          699686 
        930.478          798511 
         930.63          976611 
        930.633          980007 
        930.782      1.13559e+6 
        930.931      1.28042e+6 
         931.08       1.4127e+6 
        931.229      1.53552e+6 
        931.379       1.6639e+6 
        931.528      1.78709e+6 
        931.677      1.90157e+6 
        931.788      1.98031e+6 
        931.814      1.99802e+6 
        931.826      2.00608e+6 
        931.838      2.01408e+6 
        931.888      2.04661e+6 
        931.988      2.10789e+6 
        932.188       2.2034e+6 
        932.389      2.28548e+6 
        932.589      2.35525e+6 
        932.789      2.41195e+6 
        932.989      2.45415e+6 
        933.189       2.4867e+6 
        933.347      2.50552e+6 
        933.375      2.50818e+6 
        933.377      2.50836e+6 
        933.389      2.50943e+6 
        933.403      2.51063e+6 
        933.432       2.5128e+6 
         933.46      2.51475e+6 
        933.542      2.51916e+6 
        933.652      2.52197e+6 
        933.762      2.52112e+6 
        933.872      2.51635e+6 
        933.982      2.50583e+6 
        934.092      2.48863e+6 
        934.202       2.4661e+6 
        934.312      2.43768e+6 
        934.413      2.40745e+6 
        934.422      2.40469e+6 
        934.533      2.36779e+6 
        934.652      2.32121e+6 
        934.771      2.26754e+6 
         934.89      2.20721e+6 
        935.009      2.13909e+6 
        935.026      2.12873e+6 
        935.128      2.06847e+6 
         935.23      2.01223e+6 
        935.332      1.95255e+6 
        935.434      1.88953e+6 
        935.537       1.8231e+6 
        935.639      1.75334e+6 
        935.741      1.68027e+6 
        935.746      1.67655e+6 
        935.843      1.60258e+6 
        935.945      1.52007e+6 
        936.144      1.34415e+6 
        936.343      1.15236e+6 
        936.484      1.00048e+6 
        936.542          932054 
        936.601          858845 
        936.605          853656 
        936.717          698945 
        936.829          531513 
        936.894          430678 
        936.938          371676 
        936.941          368468 
        936.944          365298 
        936.973          340960 
        936.987          334768 
        936.994          332937 
        937.001          331922 
        937.015          331407 
        937.029          331378 
        937.043          331432 
        937.058          331491 
        937.072          331548 
        937.086          331608 
        937.101          331667 
        937.115          331730 
        937.143          332503 
          937.2          366442 
        937.314          532971 
        937.428          706120 
        937.493          799963 
        937.542          866703 
        937.593          933106 
        937.694      1.05354e+6 
        937.794      1.16396e+6 
        937.894      1.26762e+6 
         937.95      1.32385e+6 
        937.988      1.36106e+6 
        937.994      1.36689e+6 
            938      1.37283e+6 
         938.05      1.42146e+6 
         938.15      1.51592e+6 
         938.35      1.69259e+6 
         938.55      1.85438e+6 
        938.587      1.88357e+6 
        938.751      2.00816e+6 
        938.883      2.10558e+6 
        938.914      2.12806e+6 
        939.077      2.24706e+6 
        939.271      2.40378e+6 
        939.465      2.54963e+6 
        939.659      2.68592e+6 
        939.854      2.81596e+6 
        940.048      2.94411e+6 
        940.132      2.99696e+6 
        940.242      3.06262e+6 
        940.284      3.08552e+6 
        940.436      3.16585e+6 
        940.588      3.24187e+6 
         940.74      3.31413e+6 
        941.045      3.44897e+6 
        941.197      3.51023e+6 
        941.349      3.56722e+6 
        941.501      3.61456e+6 
        941.653      3.65873e+6 
        941.958       3.7378e+6 
        942.262      3.80494e+6 
        942.566       3.8553e+6 
        942.693      3.87198e+6 
         942.87      3.89064e+6 
        943.048      3.90384e+6 
        943.225      3.91122e+6 
        943.402      3.91037e+6 
        943.579      3.90249e+6 
        943.756      3.88706e+6 
        943.933        3.864e+6 
        944.111      3.83152e+6 
        944.288      3.78788e+6 
        944.465      3.73457e+6 
        944.642      3.67161e+6 
        944.819      3.60234e+6 
        944.996      3.52977e+6 
        945.039      3.51089e+6 
        945.173      3.44887e+6 
        945.308      3.38211e+6 
        945.442      3.31221e+6 
        945.576      3.23832e+6 
         945.71      3.15988e+6 
        945.844      3.07702e+6 
        946.112      2.92154e+6 
        946.381      2.76132e+6 
        946.649       2.6013e+6 
        946.676      2.58447e+6 
        946.917      2.43134e+6 
        947.158      2.27065e+6 
        947.279      2.18687e+6 
        947.399      2.09976e+6 
        947.521      2.00976e+6 
        947.641      1.91542e+6 
        947.681      1.88281e+6 
        947.762      1.81599e+6 
        947.782      1.79897e+6 
        947.882      1.71007e+6 
        947.983      1.61601e+6 
        948.033      1.56689e+6 
        948.083      1.51738e+6 
        948.133      1.46668e+6 
        948.233      1.36082e+6 
        948.333      1.25004e+6 
        948.433      1.12871e+6 
        948.495      1.04771e+6 
        948.521      1.01189e+6 
        948.534          995021 
        948.546          977943 
        948.596          904656 
        948.615          875763 
        948.661          803547 
        948.696          747822 
        948.777          612589 
        948.835          510594 
        948.893          421495 
        948.922          392894 
        948.951          383183 
        948.966          383007 
         948.98          383061 
        948.994          383127 
        949.009          383196 
        949.023          383259 
        949.037          383321 
        949.052          383391 
        949.066          383457 
        949.095          383843 
        949.153          422796 
         949.23          545660 
        949.258          596529 
        949.269          616038 
         949.28          635434 
         949.33          720282 
         949.36          769700 
         949.43          882109 
          949.5          988166 
         949.64      1.17914e+6 
        949.781      1.34766e+6 
        949.795      1.36348e+6 
        949.879      1.45755e+6 
        949.921      1.50292e+6 
        949.963      1.54752e+6 
        950.131      1.71874e+6 
        950.299      1.87688e+6 
        950.467      2.02396e+6 
        950.635      2.16192e+6 
        950.719      2.22905e+6 
        950.804      2.29488e+6 
        950.888      2.35919e+6 
        951.056      2.48531e+6 
        951.392      2.73077e+6 
        951.728       2.9675e+6 
        951.896      3.09168e+6 
        952.065      3.21463e+6 
        952.233      3.34287e+6 
        952.401       3.4784e+6 
        952.688      3.70262e+6 
        952.737      3.74132e+6 
        952.788      3.78154e+6 
        952.888      3.86001e+6 
        953.089      4.01524e+6 
        953.489      4.33499e+6 
        953.889      4.66291e+6 
         954.29      4.97663e+6 
         954.49      5.12962e+6 
         954.69      5.28133e+6 
         954.89       5.4266e+6 
         955.09      5.55855e+6 
         955.29      5.68751e+6 
        955.491       5.8132e+6 
        955.768      5.98137e+6 
        955.891      6.04926e+6 
        956.014      6.11508e+6 
         956.26       6.2463e+6 
        956.753      6.49823e+6 
        957.245      6.73529e+6 
        957.738      6.95555e+6 
        958.156      7.12727e+6 
         958.23      7.15614e+6 
        958.722      7.33725e+6 
        959.006      7.43078e+6 
        959.289      7.51526e+6 
        959.572      7.58591e+6 
        959.847      7.64538e+6 
        959.855      7.64698e+6 
        960.139      7.69835e+6 
         960.43      7.73944e+6 
        960.721       7.7751e+6 
        961.012      7.79753e+6 
        961.304      7.80642e+6 
        961.595      7.80108e+6 
        961.886      7.78088e+6 
        962.177      7.74604e+6 
        962.468      7.69568e+6 
         962.76      7.63121e+6 
        963.051      7.54868e+6 
        963.342      7.45321e+6 
        963.618      7.34982e+6 
        963.633      7.34388e+6 
        963.925      7.22218e+6 
        964.231       7.0792e+6 
        964.537      6.92611e+6 
        964.843      6.76253e+6 
         965.15      6.58852e+6 
        965.456      6.40539e+6 
        965.762       6.2147e+6 
        966.375        5.822e+6 
        966.987      5.42044e+6 
        967.167       5.3009e+6 
          967.6      5.01216e+6 
        968.032      4.71914e+6 
        968.464      4.41397e+6 
        968.496      4.39107e+6 
        968.897      4.09909e+6 
        969.097      3.94795e+6 
        969.297      3.79288e+6 
        969.468      3.65455e+6 
        969.497      3.63071e+6 
        969.697        3.462e+6 
        969.927      3.25972e+6 
        970.156      3.04415e+6 
         970.27       2.9313e+6 
        970.385      2.81478e+6 
        970.499      2.69281e+6 
        970.614      2.56565e+6 
        970.728      2.43012e+6 
         970.75      2.40356e+6 
        970.812      2.32583e+6 
        970.843       2.2864e+6 
        970.874      2.24649e+6 
        970.998      2.07821e+6 
        971.122      1.89501e+6 
        971.146      1.85887e+6 
        971.247      1.69112e+6 
        971.348      1.50564e+6 
        971.449      1.29451e+6 
        971.515        1.139e+6 
         971.55       1.0502e+6 
        971.585          959282 
        971.607          900424 
        971.644          800242 
        971.655          770406 
        971.703          645352 
        971.732          579175 
        971.762          525915 
        971.778          508272 
        971.792          500855 
        971.806          499249 
        971.821          499300 
        971.827          499334 
        971.833          499369 
        971.836          499384 
        971.839          499403 
        971.851          499469 
        971.866          499554 
         971.88          500116 
         971.91          519192 
        971.969          632883 
        972.037          811715 
        972.087          948123 
        972.137      1.07957e+6 
         972.15      1.11315e+6 
        972.237      1.32166e+6 
        972.324      1.50514e+6 
        972.499      1.81833e+6 
        972.548      1.89634e+6 
        972.673      2.08041e+6 
        972.798      2.24804e+6 
        972.923       2.4001e+6 
        973.048      2.54161e+6 
        973.173      2.67155e+6 
        973.298      2.79378e+6 
        973.423      2.91071e+6 
        973.548      3.02169e+6 
        973.601      3.06756e+6 
        973.673      3.12876e+6 
        973.746      3.18881e+6 
         973.89      3.30649e+6 
        974.034      3.41918e+6 
        974.178      3.52747e+6 
        974.466      3.73997e+6 
        974.754      3.94421e+6 
        975.043      4.13748e+6 
        975.331      4.33122e+6 
        975.556      4.46637e+6 
        975.598      4.49166e+6 
        975.619      4.50432e+6 
         975.64      4.51698e+6 
        975.724      4.56784e+6 
        975.892      4.67105e+6 
        976.228       4.8711e+6 
        976.565      5.07697e+6 
        976.901      5.29779e+6 
        977.237      5.54259e+6 
        977.574      5.77626e+6 
         977.91      6.02705e+6 
        978.246      6.27561e+6 
        978.414      6.40715e+6 
        978.582      6.54742e+6 
         978.75      6.70086e+6 
        978.919      6.86777e+6 
        979.087      7.04951e+6 
        979.105      7.07015e+6 
        979.205      7.18988e+6 
        979.255      7.25243e+6 
        979.305       7.3168e+6 
        979.505      7.54739e+6 
        979.705      7.80447e+6 
        979.905      8.10003e+6 
        980.105      8.35818e+6 
        980.306      8.59986e+6 
        980.506      8.86127e+6 
        980.706      9.12259e+6 
        980.906      9.33892e+6 
        981.106      9.56332e+6 
        981.506      1.00246e+7 
        982.307      1.09374e+7 
        982.707      1.13897e+7 
        983.108      1.18491e+7 
        983.508      1.23305e+7 
        983.863      1.27832e+7 
        983.893      1.28225e+7 
        983.908      1.28422e+7 
        983.923      1.28619e+7 
        983.983      1.29425e+7 
        984.103      1.30962e+7 
        984.344       1.3395e+7 
        984.824      1.40018e+7 
