# Koester WD models
# teff = 15500 K (value for the effective temperature for the model. Temperatures are given in K)
# logg = 9.5 log(cm/s2) (value for Log(G) for the model.)
#
# column 1: WAVELENGTH (ANGSTROM), Wavelength in Angstrom
# column 2: FLUX (ERG/CM2/S/A), Flux in erg/cm2/s/A
         899.23          504785 
        904.235          534118 
         908.45          559829 
        909.241          564755 
        910.032          569712 
        911.193          577023 
        911.613          579665 
        911.824          580981 
        911.929          581634 
        912.034          582285 
        912.139          587908 
        912.244          593569 
        912.349          599234 
        912.454          604889 
        912.559          610503 
        912.664          616082 
         912.77          621599 
        912.875          626996 
        912.886          627549 
        913.037          634938 
        913.085          637197 
        913.284          645987 
        913.531          655157 
        913.649          658044 
        913.736          660737 
        913.779          661877 
        913.822          662841 
        913.994          662490 
        914.165          664928 
        914.336          661211 
        914.439          656989 
        914.507          654595 
        914.575          654092 
        914.712          656458 
        914.848          649182 
        914.897          640941 
        914.984          627294 
        915.071          620829 
        915.245          644950 
        915.419          642082 
        915.544          596827 
        915.594          579332 
        915.609          574393 
        915.643          568060 
        915.677          567215 
        915.745          580984 
        915.881          648393 
        916.017          695234 
        916.153          665000 
        916.289          574481 
        916.379          527486 
        916.421          520163 
        916.425          520100 
        916.429          520150 
        916.479          530549 
         916.58          594320 
         916.68          685518 
         916.78          760671 
         916.88          795731 
         916.98          773711 
         917.08          703403 
         917.18          600047 
        917.182          597990 
         917.28          505595 
        917.378          469602 
        917.575          610638 
        917.771          844265 
        917.967          956348 
        918.163          872995 
        918.359          635180 
         918.51          467494 
        918.556          442861 
        918.602          435076 
        918.694          468905 
        918.878          699064 
        919.062          966599 
        919.201      1.11414e+6 
        919.241      1.14347e+6 
        919.246      1.14664e+6 
        919.251      1.14972e+6 
        919.301      1.17407e+6 
        919.402      1.19199e+6 
        919.502      1.17503e+6 
        919.602      1.11496e+6 
        919.702      1.01431e+6 
        919.802          888914 
        919.902          740137 
        920.002          589155 
        920.102          465477 
        920.165          426518 
        920.189          420317 
        920.202          418957 
        920.215          418507 
        920.265          427059 
        920.366          508533 
        920.466          648777 
        920.566          808762 
        920.666          973284 
        920.766      1.12077e+6 
        920.866      1.25638e+6 
        920.966      1.36216e+6 
        921.066      1.44214e+6 
        921.166      1.49641e+6 
        921.266      1.52164e+6 
        921.367      1.52142e+6 
        921.467      1.49332e+6 
        921.567      1.43434e+6 
        921.667      1.34967e+6 
        921.767        1.239e+6 
        921.867      1.10269e+6 
        921.967          955921 
        922.067          792354 
        922.167          626022 
        922.267          485998 
        922.331          431319 
        922.368          419915 
        922.405          417326 
        922.479          432110 
        922.627          606764 
         922.74          797779 
        922.775          856948 
         922.81          919346 
         922.88      1.03423e+6 
         923.02      1.26058e+6 
         923.16      1.46257e+6 
        923.301      1.64099e+6 
        923.441      1.78162e+6 
        923.581      1.88672e+6 
        923.721      1.95556e+6 
        923.861      1.99256e+6 
        924.001      2.00039e+6 
        924.141      1.97611e+6 
        924.282      1.91673e+6 
        924.422      1.81911e+6 
        924.562      1.68379e+6 
        924.702      1.51311e+6 
        924.842      1.32212e+6 
        924.982      1.09917e+6 
        925.122          862600 
        925.262          615586 
        925.322          522579 
        925.403          441466 
        925.484          428466 
        925.646          524637 
        925.808          804015 
         925.97      1.09042e+6 
        926.132      1.36412e+6 
         926.22      1.50045e+6 
        926.295      1.61052e+6 
        926.369      1.71981e+6 
        926.517       1.9203e+6 
        926.665      2.09465e+6 
        926.813      2.24569e+6 
        926.961      2.37113e+6 
        927.109      2.47181e+6 
        927.257      2.55237e+6 
        927.406      2.61331e+6 
        927.554      2.65444e+6 
        927.702      2.67792e+6 
         927.85      2.68405e+6 
        927.998      2.67208e+6 
        928.038      2.66487e+6 
         928.11      2.64453e+6 
        928.146      2.63206e+6 
        928.182      2.61802e+6 
        928.327      2.54548e+6 
        928.471      2.45025e+6 
        928.615      2.32857e+6 
        928.717      2.22644e+6 
        928.759      2.18035e+6 
        928.903      2.03002e+6 
        928.917      2.01419e+6 
        929.089      1.80576e+6 
        929.261      1.56151e+6 
        929.325       1.4669e+6 
        929.434      1.28974e+6 
        929.543       1.1033e+6 
        929.652          905197 
        929.719          780098 
        929.753          716352 
        929.755          712510 
        929.761          701021 
        929.769          685794 
        929.819          594063 
        929.827          580315 
        929.883          497512 
         929.91          470859 
        929.939          455716 
        929.954          452945 
        929.968          451871 
        929.982          451617 
        929.996          451566 
         930.01          451617 
        930.024          451717 
        930.038          451921 
        930.052          452333 
        930.081          456499 
        930.137          499033 
        930.201          596752 
        930.247          681986 
        930.249          685822 
        930.251          689671 
        930.301          785389 
        930.326          830483 
        930.402          975838 
        930.478      1.11546e+6 
         930.63      1.38259e+6 
        930.633      1.38777e+6 
        930.782      1.62775e+6 
        930.931      1.85491e+6 
         931.08      2.05886e+6 
        931.229      2.24941e+6 
        931.379      2.44477e+6 
        931.516      2.61357e+6 
        931.528      2.62796e+6 
        931.677      2.79556e+6 
        931.838       2.9625e+6 
        931.999      3.11157e+6 
         932.16      3.23116e+6 
        932.321      3.33779e+6 
        932.483      3.43056e+6 
        932.644      3.51192e+6 
        932.805      3.57721e+6 
        932.966      3.62819e+6 
        933.127      3.66973e+6 
        933.173      3.67987e+6 
        933.265      3.69778e+6 
        933.288      3.70174e+6 
        933.403      3.71839e+6 
        933.432      3.72144e+6 
        933.542      3.72995e+6 
        933.652        3.733e+6 
        933.762      3.73011e+6 
        933.872      3.72112e+6 
        933.982      3.70409e+6 
        934.092      3.67777e+6 
        934.202      3.64334e+6 
        934.312      3.60045e+6 
        934.413      3.55543e+6 
        934.422      3.55138e+6 
        934.533      3.49741e+6 
        934.652      3.42949e+6 
        934.771      3.35155e+6 
         934.89      3.26449e+6 
        935.009      3.16622e+6 
        935.026      3.15121e+6 
        935.128      3.06179e+6 
         935.23      2.97528e+6 
        935.332      2.88317e+6 
        935.434      2.78667e+6 
        935.537       2.6854e+6 
        935.639      2.57904e+6 
        935.741      2.46712e+6 
        935.843      2.34811e+6 
        935.945      2.22121e+6 
         935.95      2.21477e+6 
        936.047      2.08605e+6 
        936.144      1.94991e+6 
        936.338      1.65585e+6 
        936.464      1.44694e+6 
        936.532      1.32632e+6 
        936.601       1.1998e+6 
        936.645      1.11593e+6 
        936.714          979740 
        936.737          934071 
        936.829          751032 
        936.887          633593 
        936.944          538205 
        936.973          506871 
        937.001          493023 
        937.015          491596 
        937.029          491285 
        937.043          491323 
        937.058          491402 
        937.072          491483 
        937.086          491565 
        937.101          491662 
        937.115          491788 
        937.143          493858 
         937.15          495957 
        937.186          522679 
        937.199          538566 
         937.25          623006 
        937.314          753172 
        937.341          808489 
        937.442      1.01192e+6 
        937.543      1.21226e+6 
        937.645        1.403e+6 
        937.746      1.58206e+6 
        937.847      1.74891e+6 
        937.896      1.82877e+6 
        937.948      1.91097e+6 
            938      1.99072e+6 
        938.104      2.14531e+6 
        938.208      2.29232e+6 
        938.312      2.43226e+6 
        938.416      2.56531e+6 
         938.52      2.69239e+6 
        938.624      2.81636e+6 
        938.752      2.96279e+6 
        938.833      3.05499e+6 
        938.881      3.10902e+6 
        938.914      3.14571e+6 
        939.076       3.3249e+6 
        939.271      3.55201e+6 
        939.466      3.76259e+6 
        939.661      3.96136e+6 
        939.857      4.15419e+6 
        940.052      4.34278e+6 
        940.247      4.51604e+6 
        940.442      4.66966e+6 
        940.534      4.73843e+6 
        940.637      4.81239e+6 
         940.74      4.88307e+6 
        940.947      5.01169e+6 
        941.153        5.129e+6 
        941.359      5.23502e+6 
        941.565      5.32264e+6 
        941.771      5.40257e+6 
        941.978       5.4751e+6 
        942.184      5.54014e+6 
         942.39      5.59546e+6 
        942.596       5.6412e+6 
        942.802      5.67786e+6 
        942.891      5.69074e+6 
        942.969      5.70061e+6 
        943.009      5.70498e+6 
        943.048      5.70896e+6 
        943.204      5.72112e+6 
         943.36       5.7231e+6 
        943.516      5.71726e+6 
        943.672      5.70331e+6 
        943.828      5.68091e+6 
        943.984      5.64981e+6 
        944.141      5.60768e+6 
        944.297      5.55427e+6 
        944.453      5.49047e+6 
        944.609      5.41592e+6 
        944.765       5.3316e+6 
        944.847      5.28774e+6 
        945.077      5.15067e+6 
        945.308      4.99353e+6 
        945.538      4.82307e+6 
        945.768      4.63429e+6 
        945.998      4.43649e+6 
        946.228      4.23333e+6 
        946.459      4.02834e+6 
        946.689      3.81839e+6 
        946.919      3.59769e+6 
        947.108      3.40637e+6 
         947.14      3.37329e+6 
        947.149      3.36389e+6 
        947.158      3.35444e+6 
        947.208       3.3015e+6 
        947.308      3.19321e+6 
        947.509      2.96646e+6 
        947.709      2.72249e+6 
        947.735      2.68935e+6 
        947.909      2.45391e+6 
        948.083      2.19404e+6 
        948.257      1.90778e+6 
        948.317        1.804e+6 
        948.431       1.5924e+6 
        948.546       1.3639e+6 
         948.66      1.11948e+6 
        948.727          973118 
        948.761          898508 
        948.771          876096 
        948.774          869395 
        948.777          862710 
        948.827          747539 
        948.835          730072 
        948.893          616959 
        948.922          580142 
        948.951          565609 
        948.966          565003 
         948.98          565050 
        948.994          565141 
        949.009          565238 
        949.023          565330 
        949.037          565421 
        949.052          565518 
        949.066          565609 
        949.095          566549 
        949.153          618796 
         949.23          775779 
        949.258          842713 
        949.269          867416 
         949.28          892357 
         949.33      1.00398e+6 
         949.36      1.07062e+6 
         949.43      1.22639e+6 
          949.5       1.3777e+6 
         949.64      1.66319e+6 
        949.781      1.92376e+6 
        949.795      1.94835e+6 
        949.879      2.09559e+6 
        949.921      2.16656e+6 
        949.963      2.23598e+6 
        950.131      2.50005e+6 
        950.299      2.74251e+6 
        950.467      2.96715e+6 
        950.635      3.17907e+6 
        950.719      3.28196e+6 
        950.804      3.38268e+6 
        950.888      3.48167e+6 
        951.056      3.67434e+6 
        951.224      3.86196e+6 
        951.392      4.04559e+6 
        951.728        4.403e+6 
        952.065      4.77739e+6 
        952.401       5.1601e+6 
        952.738       5.5369e+6 
        953.413      6.30417e+6 
         953.75      6.69935e+6 
        954.087      7.08244e+6 
        954.425      7.44507e+6 
        954.593      7.62188e+6 
        954.762      7.79571e+6 
         954.93      7.95426e+6 
        955.099      8.10254e+6 
        955.267      8.24687e+6 
        955.437      8.38805e+6 
        955.534      8.46807e+6 
        955.774      8.66172e+6 
        956.014      8.84094e+6 
        956.494      9.19409e+6 
        956.975      9.52578e+6 
        957.455      9.83931e+6 
        957.543      9.89375e+6 
        957.936      1.01261e+7 
         957.98      1.01511e+7 
        958.416      1.03881e+7 
        958.852      1.06044e+7 
        959.289      1.07942e+7 
        959.725      1.09605e+7 
        959.893      1.10166e+7 
        960.162      1.10965e+7 
         960.43       1.1163e+7 
        960.698       1.1229e+7 
        960.966      1.12793e+7 
        961.234      1.13133e+7 
        961.503      1.13308e+7 
        961.771      1.13302e+7 
        962.039      1.13122e+7 
        962.307       1.1275e+7 
        962.576      1.12192e+7 
        962.844      1.11441e+7 
        963.112      1.10482e+7 
         963.38      1.09351e+7 
        963.648      1.08023e+7 
        963.917      1.06543e+7 
        964.047      1.05768e+7 
        964.139      1.05184e+7 
        964.185      1.04882e+7 
        964.231      1.04576e+7 
        964.415       1.0335e+7 
        964.783      1.00661e+7 
        965.152      9.77111e+6 
         965.52      9.45421e+6 
        965.888      9.11872e+6 
        966.257      8.77104e+6 
        966.993      8.04876e+6 
        967.428      7.61409e+6 
         967.73      7.30675e+6 
        968.032      6.99718e+6 
        968.334      6.67837e+6 
        968.637      6.35415e+6 
        968.939      6.01976e+6 
        969.185      5.73787e+6 
        969.241      5.67237e+6 
        969.297      5.60636e+6 
        969.339      5.55553e+6 
        969.409      5.47115e+6 
        969.633       5.1918e+6 
        969.779       5.0017e+6 
        969.927      4.80441e+6 
        970.074      4.59753e+6 
         970.22      4.38224e+6 
        970.367      4.15655e+6 
        970.514       3.9181e+6 
         970.66      3.66545e+6 
         970.74      3.51887e+6 
        970.807      3.39044e+6 
        970.874      3.25846e+6 
        971.008      2.97712e+6 
        971.144      2.66656e+6 
        971.209      2.50267e+6 
        971.278      2.31594e+6 
        971.348      2.11501e+6 
        971.389      1.98867e+6 
        971.467       1.7385e+6 
        971.487      1.67059e+6 
        971.585      1.32779e+6 
        971.644      1.11724e+6 
        971.703          918360 
        971.732          834291 
        971.762          766291 
        971.778          742880 
        971.792          732308 
        971.806          729783 
        971.821          729823 
        971.827          729871 
        971.833          729921 
        971.836          729943 
        971.839          729968 
        971.851          730062 
        971.866          730182 
         971.88          731181 
         971.91          757224 
        971.969          902193 
        972.037      1.13241e+6 
        972.087      1.31272e+6 
        972.137      1.49245e+6 
         972.15      1.53896e+6 
        972.237      1.83704e+6 
        972.324      2.11176e+6 
        972.499       2.5941e+6 
        972.548      2.71481e+6 
        972.673      2.99799e+6 
        972.798      3.25425e+6 
        972.923       3.4866e+6 
        973.048      3.70146e+6 
        973.173       3.8995e+6 
        973.298      4.08533e+6 
        973.423      4.26327e+6 
        973.548      4.43206e+6 
        973.601      4.50165e+6 
        973.673      4.59427e+6 
        973.746      4.68496e+6 
         973.89      4.86265e+6 
        974.034      5.03249e+6 
        974.178      5.19487e+6 
        974.466      5.51306e+6 
        974.754      5.81908e+6 
        975.043      6.10908e+6 
        975.331       6.3992e+6 
        975.556      6.60149e+6 
        975.598      6.63932e+6 
        975.619      6.65826e+6 
         975.64      6.67724e+6 
        975.724      6.75342e+6 
        975.892      6.90761e+6 
        976.228      7.20706e+6 
        976.565      7.51494e+6 
        976.901      7.84713e+6 
        977.237      8.21812e+6 
        977.574      8.57375e+6 
         977.91      8.95624e+6 
        978.246      9.33722e+6 
        978.414      9.54187e+6 
        978.582      9.75867e+6 
         978.75      9.99341e+6 
        978.919      1.02512e+7 
        979.087      1.05333e+7 
        979.105      1.05651e+7 
        979.205      1.07479e+7 
        979.255      1.08438e+7 
        979.305      1.09428e+7 
        979.505      1.13036e+7 
        979.705      1.17018e+7 
        979.905      1.21487e+7 
        980.105      1.25471e+7 
        980.306      1.29135e+7 
        980.506      1.33052e+7 
        980.906      1.40309e+7 
        981.091      1.43466e+7 
        981.306      1.47231e+7 
        981.707      1.53892e+7 
        982.507      1.67166e+7 
        983.923      1.91564e+7 
         984.06      1.94198e+7 
        985.339      2.16309e+7 
        985.979       2.2731e+7 
        986.299      2.32667e+7 
        986.458        2.353e+7 
        986.618      2.37946e+7 
        986.778      2.40407e+7 
        986.938       2.4191e+7 
        987.098      2.43374e+7 
        987.258        2.448e+7 
        987.418      2.46209e+7 
        987.577      2.47518e+7 
        987.737      2.48769e+7 
        987.897      2.49986e+7 
        988.057      2.51168e+7 
        988.216      2.52834e+7 
        988.377      2.54929e+7 
        988.401      2.55237e+7 
        988.537      2.56999e+7 
        988.629       2.5818e+7 
        988.856      2.60923e+7 
        989.084       2.6288e+7 
        989.312      2.64779e+7 
        989.426      2.65737e+7 
         989.54      2.66406e+7 
        989.654      2.66504e+7 
