# Koester WD models
# teff = 15500 K (value for the effective temperature for the model. Temperatures are given in K)
# logg = 9 log(cm/s2) (value for Log(G) for the model.)
#
# column 1: WAVELENGTH (ANGSTROM), Wavelength in Angstrom
# column 2: FLUX (ERG/CM2/S/A), Flux in erg/cm2/s/A
         899.23          393987 
        904.235          417508 
         908.45          438145 
        909.241          442101 
        910.032          446081 
        911.193          451968 
        911.613          454095 
        911.824          455151 
        911.929          455675 
        912.034          456197 
        912.139          463511 
        912.244          470862 
        912.349          478263 
        912.454          485731 
        912.559          493293 
        912.664          500833 
         912.77          508281 
        912.875          515495 
        912.886          516230 
        913.085          527913 
        913.284          536870 
        913.339          538221 
        913.435          540586 
        913.483          542424 
        913.531          543715 
        913.625          543706 
        913.724          543068 
        913.822          544714 
        913.871          544743 
        914.018          537655 
        914.165          529776 
        914.312          536936 
        914.343          536628 
        914.459          514150 
        914.575          494886 
        914.692          519019 
        914.808          538764 
        914.924          498530 
        915.009          456957 
         915.04          448378 
        915.071          445732 
        915.133          459731 
        915.257          531400 
        915.381          561114 
        915.505          487182 
        915.609          415202 
        915.617          412017 
         915.63          406431 
        915.643          402363 
        915.677          398037 
        915.745          418265 
        915.881          539028 
        916.017          624992 
        916.153          583513 
        916.289          446204 
        916.379          374833 
        916.421          364246 
        916.425          364073 
        916.429          364038 
        916.479          375832 
         916.58          463152 
         916.68          590940 
         916.78          694286 
         916.88          742387 
         916.98          720383 
         917.08          636348 
         917.18          507914 
        917.182          505036 
         917.28          383193 
        917.378          340885 
        917.575          513097 
        917.771          787783 
        917.967          915693 
        918.163          830662 
        918.359          572216 
         918.51          363746 
        918.556          336238 
        918.602          329289 
        918.694          364685 
        918.878          636945 
        919.062          923056 
        919.201      1.07593e+6 
        919.241      1.10596e+6 
        919.246      1.10927e+6 
        919.251      1.11248e+6 
        919.301      1.13756e+6 
        919.402      1.15694e+6 
        919.502      1.14074e+6 
        919.602      1.08207e+6 
        919.702          984943 
        919.802          853272 
        919.902          699155 
        920.002          534454 
        920.102          377296 
        920.165          333125 
        920.189          328227 
        920.202          327206 
        920.215          326936 
        920.265          333546 
        920.366          433128 
        920.466          599755 
        920.566          769762 
        920.666          937351 
        920.766      1.08405e+6 
        920.866      1.21215e+6 
        920.966      1.31313e+6 
        921.066      1.38745e+6 
        921.166      1.43664e+6 
        921.266      1.46004e+6 
        921.367      1.46041e+6 
        921.467      1.43529e+6 
        921.567      1.38341e+6 
        921.667      1.30571e+6 
        921.767      1.20078e+6 
        921.867      1.07352e+6 
        921.967          928375 
        922.067          761974 
        922.167          585910 
        922.267          415196 
        922.331          344510 
        922.368          333766 
        922.405          332239 
        922.479          345151 
        922.627          564029 
         922.67          640473 
         922.74          766721 
        922.775          827364 
         922.81          889756 
         922.95      1.11567e+6 
         923.09      1.31908e+6 
         923.23      1.49266e+6 
        923.371      1.63894e+6 
        923.511       1.7505e+6 
        923.651      1.82987e+6 
        923.791      1.87717e+6 
        923.931      1.89852e+6 
        924.071      1.89317e+6 
        924.211      1.85592e+6 
        924.352      1.78543e+6 
        924.492      1.67835e+6 
        924.632      1.53778e+6 
        924.772      1.37397e+6 
        924.912      1.17947e+6 
        925.052          961915 
        925.192          710113 
        925.333          445113 
        925.434          345666 
        925.462          344205 
        925.473          344158 
        925.484          344177 
        925.534          346100 
        925.634          445016 
        925.734          635657 
        925.834          826097 
        926.034       1.1682e+6 
          926.1      1.27055e+6 
        926.234      1.46464e+6 
        926.369      1.64252e+6 
        926.503       1.8108e+6 
        926.637      1.95968e+6 
        926.771      2.08705e+6 
        926.905      2.19551e+6 
        927.039      2.28206e+6 
        927.173      2.35322e+6 
        927.308       2.4103e+6 
        927.442      2.45476e+6 
        927.576      2.48436e+6 
         927.71      2.50266e+6 
        927.844      2.50837e+6 
        927.978      2.50162e+6 
        928.042      2.49265e+6 
        928.112      2.47507e+6 
        928.182      2.45223e+6 
        928.323      2.38968e+6 
        928.463      2.30495e+6 
        928.603      2.19709e+6 
        928.677      2.13333e+6 
        928.743      2.07113e+6 
         928.78      2.03729e+6 
        928.883       1.9419e+6 
        928.917      1.90781e+6 
        928.986      1.83624e+6 
        929.089      1.72106e+6 
        929.261      1.50251e+6 
        929.325      1.41576e+6 
        929.434      1.25249e+6 
        929.543      1.07698e+6 
        929.652          880947 
        929.719          751127 
        929.753          683444 
        929.755          679322 
        929.761          666831 
        929.769          650143 
        929.819          547492 
        929.827          531246 
        929.883          426792 
         929.91          388929 
        929.939          367789 
        929.954          364758 
        929.968          363916 
        929.982          363815 
        929.996          363856 
         930.01          363916 
        930.024          363982 
        930.038          364067 
        930.052          364293 
        930.081          368433 
        930.137          428111 
        930.201          549986 
        930.247          645428 
        930.249          649625 
        930.251          653828 
        930.301          756225 
        930.326          803940 
        930.402          950944 
        930.478       1.0888e+6 
         930.63      1.33869e+6 
        930.633      1.34341e+6 
        930.782      1.56387e+6 
        930.931      1.76757e+6 
         931.08      1.95133e+6 
        931.229      2.12151e+6 
        931.379      2.29625e+6 
        931.516      2.45083e+6 
        931.528      2.46423e+6 
        931.677      2.62016e+6 
        931.838      2.77187e+6 
        931.999      2.90498e+6 
         932.16      3.00664e+6 
        932.321      3.09673e+6 
        932.483      3.17455e+6 
        932.644      3.24329e+6 
        932.805      3.29974e+6 
        932.966       3.3446e+6 
        933.127      3.38136e+6 
        933.173      3.39038e+6 
        933.265       3.4064e+6 
        933.288      3.40998e+6 
        933.403      3.42506e+6 
        933.432      3.42792e+6 
        933.542      3.43637e+6 
        933.652      3.44014e+6 
        933.762       3.4392e+6 
        933.872      3.43307e+6 
        933.982      3.41912e+6 
        934.092      3.39606e+6 
        934.202       3.3659e+6 
        934.312      3.32817e+6 
        934.413      3.28796e+6 
        934.422      3.28428e+6 
        934.533      3.23496e+6 
        934.652      3.17251e+6 
        934.771      3.10051e+6 
         934.89      3.01943e+6 
        935.009       2.9285e+6 
        935.026      2.91472e+6 
        935.128      2.83454e+6 
         935.23      2.76002e+6 
        935.332      2.68027e+6 
        935.434       2.5961e+6 
        935.537      2.50684e+6 
        935.639      2.41209e+6 
        935.741      2.31272e+6 
        935.746       2.3077e+6 
        935.843      2.20692e+6 
        935.945      2.09238e+6 
        936.144      1.84837e+6 
        936.343      1.58028e+6 
        936.484      1.36666e+6 
        936.542      1.27022e+6 
        936.601      1.16811e+6 
        936.605      1.16091e+6 
        936.717          946524 
        936.829          713085 
        936.894          568251 
        936.938          476039 
        936.941          470463 
        936.944          464975 
        936.973          419271 
        936.987          405498 
        936.994          401257 
        937.001          398608 
        937.015          396796 
        937.029          396560 
        937.043          396610 
        937.058          396683 
        937.072          396749 
        937.086          396818 
        937.101          396890 
        937.115          396975 
        937.143          399296 
         937.15          402017 
        937.186          441708 
        937.199          464576 
         937.25          570626 
        937.314          714819 
        937.341          775006 
        937.442          984409 
        937.543      1.18024e+6 
        937.645      1.35902e+6 
        937.746      1.52208e+6 
        937.847      1.67212e+6 
        937.896      1.74215e+6 
        937.948       1.8154e+6 
            938      1.88641e+6 
        938.104      2.02527e+6 
        938.208      2.15786e+6 
        938.312      2.28381e+6 
        938.416       2.4019e+6 
         938.52      2.51488e+6 
        938.543      2.53941e+6 
        938.624      2.62484e+6 
        938.729      2.73069e+6 
        938.914      2.91184e+6 
        938.927      2.92422e+6 
        939.099      3.09278e+6 
        939.271      3.27643e+6 
        939.443      3.44887e+6 
        939.615      3.61142e+6 
        939.788      3.76466e+6 
         939.96       3.9186e+6 
        940.132      4.06321e+6 
        940.304      4.19352e+6 
        940.476      4.31136e+6 
        940.556      4.36414e+6 
        940.648      4.42305e+6 
         940.74      4.48001e+6 
        940.925      4.59018e+6 
        941.109      4.69307e+6 
        941.293      4.78882e+6 
        941.477      4.87007e+6 
        941.661      4.94245e+6 
        941.845      5.00883e+6 
         942.03      5.06927e+6 
        942.214      5.12403e+6 
        942.398      5.17009e+6 
        942.485      5.18909e+6 
        942.582      5.20835e+6 
        942.766      5.23898e+6 
        943.048      5.27024e+6 
        943.329      5.27992e+6 
         943.61      5.26383e+6 
         943.75      5.24618e+6 
        943.891      5.22192e+6 
        944.031      5.19098e+6 
        944.173      5.14882e+6 
        944.313      5.09827e+6 
        944.454      5.03965e+6 
        944.594      4.97292e+6 
        944.725      4.90381e+6 
        944.735      4.89821e+6 
         944.87      4.82674e+6 
        945.016      4.74434e+6 
        945.161      4.65458e+6 
        945.308      4.55789e+6 
        945.454      4.45547e+6 
        945.599      4.34702e+6 
        945.745      4.23129e+6 
         945.89      4.11024e+6 
        946.181       3.8903e+6 
        946.473      3.66517e+6 
        946.764      3.43228e+6 
        946.952      3.27483e+6 
        947.055      3.18532e+6 
        947.158      3.09438e+6 
        947.261      3.00032e+6 
        947.364      2.90308e+6 
        947.468      2.80237e+6 
        947.571      2.69693e+6 
        947.674      2.58629e+6 
        947.777      2.47029e+6 
         947.88      2.34469e+6 
        947.883      2.34092e+6 
        947.983       2.2125e+6 
        948.083      2.07673e+6 
        948.183      1.93369e+6 
        948.283      1.78334e+6 
        948.383      1.62063e+6 
        948.421      1.55546e+6 
        948.483      1.44327e+6 
        948.546      1.32403e+6 
        948.563      1.29015e+6 
         948.67      1.06358e+6 
        948.777          818190 
        948.843          653860 
        948.875          575021 
        948.884          554614 
        948.893          535230 
        948.922          481135 
        948.935          465716 
        948.943          460507 
        948.951          458201 
        948.966          457322 
         948.98          457362 
        948.994          457438 
        949.009          457520 
        949.023          457595 
        949.037          457670 
        949.052          457749 
        949.066          457824 
        949.095          458980 
        949.153          536845 
         949.23          724018 
        949.258          795454 
        949.269          822670 
         949.28          849920 
         949.33          966787 
         949.36      1.03574e+6 
         949.43      1.19057e+6 
          949.5      1.33747e+6 
         949.64      1.60364e+6 
        949.781      1.83958e+6 
        949.795      1.86173e+6 
        949.879      1.99154e+6 
        949.921      2.05478e+6 
        949.963      2.11666e+6 
        950.131      2.35215e+6 
        950.299      2.56926e+6 
        950.467      2.76674e+6 
        950.635      2.95135e+6 
        950.719      3.03986e+6 
        950.804      3.12616e+6 
        950.888      3.21083e+6 
        951.056       3.3757e+6 
        951.224      3.53662e+6 
        951.392       3.6942e+6 
        951.728      4.00132e+6 
        951.896      4.16135e+6 
        952.065      4.32063e+6 
        952.233      4.48808e+6 
        952.401       4.6668e+6 
        952.688      4.96224e+6 
        952.737      5.01298e+6 
        952.788       5.0655e+6 
        952.888      5.16808e+6 
        953.089      5.37187e+6 
        953.489      5.79263e+6 
        953.889      6.22538e+6 
         954.29      6.63847e+6 
         954.69       7.0399e+6 
        954.967      7.29977e+6 
         955.09      7.40747e+6 
        955.228      7.52697e+6 
        955.491      7.74717e+6 
        955.752      7.95982e+6 
        956.014      8.14869e+6 
        956.537      8.54563e+6 
        957.061      8.91389e+6 
        957.584       9.2518e+6 
        957.974      9.48098e+6 
        958.108      9.55528e+6 
        958.302      9.65927e+6 
        958.631      9.82433e+6 
         958.96      9.97358e+6 
        959.289      1.01057e+7 
        959.463       1.0169e+7 
        959.618      1.02212e+7 
        959.946      1.03184e+7 
         960.43      1.04256e+7 
        960.671      1.04804e+7 
        960.913      1.05212e+7 
        961.154      1.05472e+7 
        961.397      1.05585e+7 
        961.638      1.05539e+7 
         961.88      1.05337e+7 
        962.121      1.04984e+7 
        962.363      1.04465e+7 
        962.605      1.03797e+7 
        962.847      1.02962e+7 
        963.088      1.01965e+7 
         963.33      1.00832e+7 
        963.571      9.95571e+6 
        963.814      9.81565e+6 
         963.88      9.77541e+6 
        964.055      9.66448e+6 
        964.231       9.5434e+6 
        964.582      9.29374e+6 
        964.934      9.02259e+6 
        965.285      8.73627e+6 
        965.348      8.68361e+6 
        965.636      8.43389e+6 
        965.987      8.12529e+6 
         966.69       7.4987e+6 
        966.767      7.42817e+6 
          967.4        6.857e+6 
        968.032      6.28334e+6 
        968.348      5.98888e+6 
        968.665       5.6926e+6 
        968.668      5.68974e+6 
        968.981      5.38701e+6 
        968.983      5.38554e+6 
        969.297      5.07012e+6 
        969.611       4.7367e+6 
        969.876      4.44001e+6 
        969.927       4.3817e+6 
        969.977      4.32274e+6 
        970.077      4.20191e+6 
        970.277      3.94961e+6 
        970.477      3.67896e+6 
         970.48      3.67472e+6 
        970.677      3.38177e+6 
        970.874       3.0528e+6 
        971.071       2.6787e+6 
         971.19      2.42404e+6 
        971.269       2.2375e+6 
        971.348      2.03271e+6 
        971.427       1.8074e+6 
        971.467      1.68387e+6 
        971.506      1.55692e+6 
        971.585      1.28012e+6 
        971.644      1.06171e+6 
        971.703          842138 
        971.732          741815 
        971.762          653932 
        971.778          619682 
        971.792          600987 
        971.806          594081 
        971.821          593673 
        971.827          593714 
        971.833          593752 
        971.836          593774 
        971.839          593792 
        971.851          593871 
        971.866          594009 
         971.88          597242 
         971.91          640973 
        971.969          823009 
        972.037      1.07734e+6 
        972.087      1.26403e+6 
        972.137      1.44502e+6 
         972.15      1.49047e+6 
        972.237      1.77647e+6 
        972.324      2.03119e+6 
        972.499      2.46407e+6 
        972.548      2.57214e+6 
        972.673       2.8242e+6 
        972.798      3.05169e+6 
        972.923      3.25705e+6 
        973.048      3.44454e+6 
        973.173      3.61723e+6 
        973.298      3.77701e+6 
        973.423       3.9291e+6 
        973.548      4.07345e+6 
        973.601      4.13286e+6 
        973.673      4.21187e+6 
        973.746      4.28925e+6 
         973.89      4.44067e+6 
        974.034      4.58556e+6 
        974.178      4.72514e+6 
        974.466       4.9989e+6 
        974.754       5.2628e+6 
        975.043      5.51419e+6 
        975.331      5.76683e+6 
        975.556      5.94314e+6 
        975.598      5.97613e+6 
        975.619      5.99265e+6 
         975.64      6.00921e+6 
        975.724      6.07568e+6 
        975.892      6.21024e+6 
        976.228      6.47152e+6 
        976.565      6.74258e+6 
        976.901      7.03469e+6 
        977.237      7.35975e+6 
        977.574      7.66919e+6 
         977.91      8.00226e+6 
        978.246      8.33166e+6 
        978.414      8.50586e+6 
        978.582      8.69144e+6 
         978.75      8.89237e+6 
        978.919      9.11216e+6 
        979.087      9.35164e+6 
        979.105       9.3786e+6 
        979.205       9.5336e+6 
        979.255      9.61488e+6 
        979.305      9.69923e+6 
        979.505      1.00017e+7 
        979.705      1.03375e+7 
        979.905       1.0717e+7 
        980.105      1.10561e+7 
        980.306      1.13657e+7 
        980.506      1.16996e+7 
        980.706      1.20371e+7 
        980.906      1.23164e+7 
        981.106      1.26049e+7 
        981.506      1.31903e+7 
        982.307      1.43621e+7 
        982.707      1.49334e+7 
        983.108      1.55182e+7 
        983.508      1.61324e+7 
        983.863      1.67177e+7 
        983.893      1.67682e+7 
        983.908      1.67935e+7 
        983.923      1.68189e+7 
        983.983       1.6921e+7 
        984.103      1.71148e+7 
        984.344      1.74876e+7 
        984.824      1.82418e+7 
