# Koester WD models
# teff = 15750 K (value for the effective temperature for the model. Temperatures are given in K)
# logg = 9.25 log(cm/s2) (value for Log(G) for the model.)
#
# column 1: WAVELENGTH (ANGSTROM), Wavelength in Angstrom
# column 2: FLUX (ERG/CM2/S/A), Flux in erg/cm2/s/A
         899.23          538032 
        904.235          569143 
         908.45          596391 
        909.241          601612 
        910.032          606858 
        911.193          614605 
        911.613          617405 
        911.824          618793 
        911.929          619484 
        912.034          620172 
        912.139          627781 
        912.244          635409 
        912.349          643043 
        912.454          650668 
        912.559          658261 
        912.664          665813 
         912.77          673284 
        912.875          680544 
        912.886          681286 
        913.085          693714 
        913.284          704461 
        913.339          706720 
        913.435          710672 
        913.483          712912 
        913.531          714596 
        913.625          716252 
        913.724          718347 
        913.822          721363 
        913.871          721460 
        914.018          716899 
        914.165          716767 
        914.312          715080 
        914.343          713440 
        914.459          700289 
        914.575          691549 
        914.692          702850 
        914.808          707804 
        914.924          676262 
        915.009          648233 
         915.04          642682 
        915.071          640995 
        915.133          651083 
        915.257          700515 
        915.381          717414 
        915.505          650903 
        915.609          589495 
        915.617          586856 
         915.63          582332 
        915.643          578788 
        915.677          575942 
        915.745          595366 
        915.881          703927 
        916.017          778678 
        916.153          737376 
        916.289          604320 
        916.379          533527 
        916.421          522444 
        916.425          522287 
        916.429          522287 
        916.479          535792 
         916.58          625849 
         916.68          754234 
         916.78          856335 
         916.88          903905 
         916.98          878169 
         917.08          789743 
         917.18          655481 
        917.182          652578 
         917.28          523785 
        917.378          475511 
        917.575          664573 
        917.771          958029 
        917.967      1.09572e+6 
        918.163          998634 
        918.359          713305 
         918.51          488923 
        918.556          456140 
        918.602          446427 
        918.694          490258 
        918.878          787704 
        919.062      1.10604e+6 
        919.201      1.27884e+6 
        919.241      1.31336e+6 
        919.246      1.31712e+6 
        919.251      1.32074e+6 
        919.301      1.34936e+6 
        919.402      1.37093e+6 
        919.502      1.35163e+6 
        919.602      1.28258e+6 
        919.702      1.16854e+6 
        919.802      1.02075e+6 
        919.902          846672 
        920.002          664950 
        920.102          496048 
        920.165          443753 
        920.189          436399 
        920.202          434778 
        920.215          434237 
        920.265          444306 
        920.366          557419 
        920.466          737062 
        920.566          926952 
        920.666      1.11765e+6 
        920.866      1.43979e+6 
        921.066      1.65133e+6 
        921.266      1.74067e+6 
        921.467      1.70966e+6 
        921.667       1.5485e+6 
        921.867       1.2699e+6 
        922.067          913434 
         922.13          790290 
        922.267          532890 
        922.405          435755 
        922.542          534699 
        922.548          544815 
        922.679          796447 
         922.81       1.0594e+6 
        922.941      1.30392e+6 
        923.072      1.53571e+6 
        923.203      1.73703e+6 
        923.335      1.91741e+6 
        923.466      2.05741e+6 
        923.597      2.16179e+6 
        923.728      2.23108e+6 
        923.859      2.26977e+6 
         923.99      2.27976e+6 
        924.121      2.25885e+6 
        924.252      2.20324e+6 
        924.384      2.11133e+6 
        924.515      1.98096e+6 
        924.646      1.81328e+6 
        924.777      1.62323e+6 
        924.908      1.40219e+6 
        925.039       1.1642e+6 
         925.17          899168 
        925.302          623879 
        925.382          485982 
        925.433          452242 
        925.484          448579 
        925.586          487186 
        925.688          672829 
         925.79          891465 
        925.892      1.10564e+6 
        925.994      1.30445e+6 
        926.096       1.4978e+6 
        926.198      1.68089e+6 
        926.232      1.73781e+6 
        926.301      1.85013e+6 
        926.369       1.9628e+6 
        926.505      2.17163e+6 
        926.641      2.35503e+6 
        926.777      2.51267e+6 
        926.913      2.64759e+6 
        927.049      2.75619e+6 
        927.185      2.84541e+6 
        927.322      2.91592e+6 
        927.458      2.96987e+6 
        927.594      3.00472e+6 
         927.73      3.02495e+6 
        927.866      3.02906e+6 
        928.002      3.01654e+6 
        928.006      3.01591e+6 
        928.094      2.99282e+6 
        928.138      2.97692e+6 
        928.182      2.95846e+6 
        928.359      2.85839e+6 
        928.535      2.71534e+6 
        928.711      2.53191e+6 
        928.887      2.32752e+6 
        928.985      2.20304e+6 
        929.037       2.1325e+6 
        929.063      2.09583e+6 
        929.089      2.05824e+6 
        929.125      2.00393e+6 
        929.193      1.89592e+6 
        929.261      1.78617e+6 
        929.398      1.54946e+6 
        929.493      1.37057e+6 
        929.525      1.30872e+6 
        929.534      1.29134e+6 
        929.543      1.27368e+6 
        929.593      1.17266e+6 
        929.617      1.12233e+6 
        929.655       1.0413e+6 
        929.693          958016 
        929.769          788719 
        929.827          657532 
        929.883          544325 
         929.91          503748 
        929.939          479046 
        929.954          475021 
        929.968          473385 
        929.982          473064 
        929.996          473014 
         930.01          473070 
        930.024          473174 
        930.038          473381 
        930.052          473865 
        930.081          479869 
        930.137          545974 
        930.201          678295 
        930.247          783827 
        930.249          788467 
        930.251          793120 
        930.301          907138 
        930.326          960467 
        930.402      1.12821e+6 
        930.478      1.28758e+6 
         930.63      1.58612e+6 
        930.633      1.59177e+6 
        930.782       1.8608e+6 
        930.931      2.11404e+6 
         931.08      2.34142e+6 
        931.229      2.55296e+6 
        931.379      2.76803e+6 
        931.516      2.95583e+6 
        931.528      2.97186e+6 
        931.677      3.15846e+6 
        931.838      3.34294e+6 
        931.999       3.5057e+6 
         932.16      3.63476e+6 
        932.321      3.74911e+6 
        932.483       3.8482e+6 
        932.644      3.93522e+6 
        932.805      4.00553e+6 
        932.966      4.06079e+6 
        933.127      4.10594e+6 
        933.173      4.11693e+6 
        933.265      4.13641e+6 
        933.288      4.14071e+6 
        933.403      4.15887e+6 
        933.432      4.16223e+6 
        933.542      4.17182e+6 
        933.652      4.17546e+6 
        933.762      4.17288e+6 
        933.872      4.16374e+6 
        933.982      4.14549e+6 
        934.092      4.11677e+6 
        934.202      4.07933e+6 
        934.312      4.03283e+6 
        934.413      3.98398e+6 
        934.422      3.97955e+6 
        934.533      3.92061e+6 
        934.652      3.84587e+6 
        934.771      3.75945e+6 
         934.89      3.66222e+6 
        935.009      3.55289e+6 
        935.026      3.53624e+6 
        935.128      3.43819e+6 
         935.23       3.3441e+6 
        935.332      3.24395e+6 
        935.434      3.13932e+6 
        935.537      3.02938e+6 
        935.639      2.91229e+6 
        935.741       2.7897e+6 
        935.843      2.65967e+6 
        935.945      2.51787e+6 
         935.95      2.51067e+6 
        936.047      2.36805e+6 
        936.144      2.21604e+6 
        936.338      1.88976e+6 
        936.464      1.65786e+6 
        936.532      1.52327e+6 
        936.601      1.38228e+6 
        936.645      1.28741e+6 
        936.714      1.13264e+6 
        936.737      1.07982e+6 
        936.829          863555 
        936.887          719296 
        936.944          590198 
        936.973          541761 
        937.001          517694 
        937.015          515099 
        937.029          514492 
        937.043          514514 
        937.058          514593 
        937.072          514678 
        937.086          514763 
        937.101          514866 
        937.115          515017 
        937.143          518567 
         937.15          522186 
        937.186          565964 
        937.199          589979 
         937.25          705401 
        937.314          865820 
        937.341          932327 
        937.442      1.16936e+6 
        937.543      1.39642e+6 
        937.645      1.60924e+6 
        937.746      1.80739e+6 
        937.847      1.99348e+6 
        937.896      2.08069e+6 
        937.948      2.17216e+6 
            938       2.2615e+6 
        938.104      2.43379e+6 
        938.208      2.59706e+6 
        938.312      2.75287e+6 
        938.416      2.89801e+6 
         938.52      3.03757e+6 
        938.543      3.06799e+6 
        938.556       3.0852e+6 
        938.624      3.17317e+6 
        938.729      3.30373e+6 
        938.914      3.53065e+6 
        939.093      3.74726e+6 
        939.271      3.97722e+6 
        939.449      4.19132e+6 
        939.628      4.39257e+6 
        939.807      4.58487e+6 
        939.986      4.77814e+6 
        940.164      4.95894e+6 
        940.343       5.1208e+6 
        940.521       5.2698e+6 
         940.58      5.31661e+6 
         940.66      5.37894e+6 
          940.7      5.40929e+6 
         940.74      5.43901e+6 
        940.901      5.55141e+6 
        941.061      5.65659e+6 
        941.221       5.7548e+6 
        941.381      5.84377e+6 
        941.541      5.91945e+6 
        941.861      6.05555e+6 
        942.182      6.17178e+6 
        942.502      6.26239e+6 
        942.597      6.28435e+6 
        942.822      6.32732e+6 
        943.048      6.35711e+6 
        943.273      6.37131e+6 
        943.498       6.3649e+6 
        943.723       6.3398e+6 
        943.948      6.29487e+6 
        944.174      6.22554e+6 
        944.399      6.13044e+6 
        944.624      6.01065e+6 
        944.849      5.87368e+6 
        945.074      5.72423e+6 
        945.258      5.58723e+6 
        945.292      5.56021e+6 
          945.3      5.55377e+6 
        945.308      5.54733e+6 
        945.358      5.50633e+6 
        945.458      5.42437e+6 
        945.658      5.24806e+6 
        945.858      5.05551e+6 
        946.058      4.86975e+6 
        946.459      4.48462e+6 
         946.56      4.38642e+6 
         946.71      4.23581e+6 
        946.859      4.08178e+6 
        947.009      3.92118e+6 
        947.158       3.7548e+6 
        947.307      3.58173e+6 
        947.458      3.40074e+6 
        947.607      3.20845e+6 
        947.757      3.00434e+6 
        947.906      2.77846e+6 
        947.975      2.66923e+6 
        948.029       2.5798e+6 
        948.056      2.53384e+6 
        948.083       2.4871e+6 
        948.191      2.29347e+6 
        948.299      2.09071e+6 
        948.407        1.872e+6 
        948.425      1.83387e+6 
        948.485      1.70284e+6 
        948.515      1.63532e+6 
        948.546      1.56664e+6 
        948.555      1.54559e+6 
        948.666      1.27533e+6 
        948.777          989677 
        948.843          806337 
        948.883          700374 
        948.888          688273 
        948.893          676567 
        948.922          619814 
        948.935          602491 
        948.943          596290 
        948.951          592859 
        948.966          591399 
         948.98          591377 
        948.994          591471 
        949.009          591571 
        949.023          591669 
        949.037          591763 
        949.052          591863 
        949.066          591961 
        949.095          593843 
        949.153          678565 
         949.23          884698 
        949.258          965078 
        949.269          995002 
         949.28      1.02506e+6 
         949.33       1.1558e+6 
         949.36       1.2338e+6 
         949.43      1.41109e+6 
          949.5      1.58227e+6 
         949.64      1.90004e+6 
        949.781      2.18872e+6 
        949.795      2.21605e+6 
        949.879      2.37755e+6 
        949.921      2.45633e+6 
        949.963      2.53401e+6 
        950.131      2.82611e+6 
        950.299      3.09489e+6 
        950.467      3.33873e+6 
        950.635      3.56901e+6 
        950.719       3.6795e+6 
        950.804      3.78801e+6 
        950.888      3.89432e+6 
        951.056      4.10251e+6 
        951.224      4.30514e+6 
        951.392      4.50256e+6 
        951.728      4.88753e+6 
        952.065      5.28875e+6 
        952.401      5.70787e+6 
        952.688      6.06092e+6 
        952.737      6.12221e+6 
        952.788      6.18576e+6 
        952.888      6.30942e+6 
        953.089      6.55525e+6 
        953.489      7.05994e+6 
        953.889      7.57438e+6 
         954.29      8.06645e+6 
         954.49      8.30524e+6 
         954.69      8.53923e+6 
         954.89      8.76181e+6 
         955.09      8.96158e+6 
         955.29      9.15652e+6 
        955.491      9.34577e+6 
        955.691       9.5303e+6 
        955.768      9.59995e+6 
        955.891      9.70391e+6 
        956.014      9.80516e+6 
         956.26      1.00258e+7 
        956.753      1.04432e+7 
        957.245      1.08316e+7 
        957.738      1.11867e+7 
        958.156      1.14613e+7 
         958.23      1.15074e+7 
        958.722      1.17961e+7 
        959.289      1.20784e+7 
        959.572      1.21998e+7 
        959.855      1.23065e+7 
        960.139      1.23981e+7 
         960.38      1.24625e+7 
        960.414      1.24706e+7 
        960.422      1.24724e+7 
         960.43      1.24743e+7 
         960.48      1.24893e+7 
         960.58      1.25174e+7 
         960.78      1.25661e+7 
         961.18      1.26309e+7 
        961.581      1.26516e+7 
        961.981      1.26255e+7 
        962.381      1.25512e+7 
        962.782      1.24288e+7 
        963.182      1.22545e+7 
        963.582      1.20344e+7 
        963.735      1.19399e+7 
        963.983      1.17741e+7 
        964.231      1.15899e+7 
        964.727      1.11864e+7 
        965.224      1.07301e+7 
         965.72      1.02305e+7 
        966.217      9.70705e+6 
        966.713      9.16927e+6 
        967.379      8.42971e+6 
        967.706      8.06563e+6 
        968.032      7.70004e+6 
        968.072      7.65408e+6 
        968.378       7.3016e+6 
        968.685      6.94446e+6 
        968.991      6.57495e+6 
        969.297      6.19217e+6 
        969.603      5.78798e+6 
        969.858      5.42971e+6 
        969.893      5.38007e+6 
         969.91      5.35513e+6 
        969.927      5.33009e+6 
        969.995      5.22871e+6 
        970.131      5.01939e+6 
        970.267      4.80123e+6 
        970.403        4.573e+6 
        970.476      4.44567e+6 
        970.539      4.33332e+6 
        970.675       4.0771e+6 
        970.874      3.66504e+6 
        971.073       3.1961e+6 
        971.198      2.86239e+6 
        971.273      2.64245e+6 
        971.348      2.40411e+6 
        971.411      2.19011e+6 
        971.467      1.98752e+6 
        971.498      1.87038e+6 
        971.585      1.52281e+6 
        971.644      1.27778e+6 
        971.703      1.03524e+6 
        971.732          925334 
        971.762          829060 
        971.778          791468 
        971.792          770975 
        971.806          763438 
        971.821          763011 
        971.827          763061 
        971.833          763112 
        971.836          763137 
        971.839          763162 
        971.851          763259 
        971.866          763426 
         971.88          766970 
         971.91          814979 
        971.969      1.01452e+6 
        972.037      1.29549e+6 
        972.087       1.5049e+6 
        972.137      1.71081e+6 
         972.15      1.76288e+6 
        972.237      2.09622e+6 
        972.324      2.40131e+6 
        972.499       2.9321e+6 
        972.548      3.06568e+6 
        972.673      3.37907e+6 
        972.798      3.66014e+6 
        972.923      3.91446e+6 
        973.048      4.14649e+6 
        973.173      4.36138e+6 
        973.298      4.56049e+6 
        973.423      4.75122e+6 
        973.548      4.93312e+6 
        973.601      5.00782e+6 
        973.673      5.10754e+6 
        973.746      5.20505e+6 
         973.89      5.39562e+6 
        974.034      5.57771e+6 
        974.178      5.75301e+6 
        974.466      6.09591e+6 
        974.754      6.42424e+6 
        975.043      6.73699e+6 
        975.331      7.05021e+6 
        975.556      7.26949e+6 
        975.598      7.31036e+6 
        975.619      7.33084e+6 
         975.64      7.35136e+6 
        975.724      7.43376e+6 
        975.892      7.60042e+6 
        976.228      7.92313e+6 
        976.565      8.25651e+6 
        976.901      8.61623e+6 
        977.237      9.01653e+6 
        977.574      9.40049e+6 
         977.91      9.81346e+6 
        978.246      1.02235e+7 
        978.414      1.04407e+7 
        978.582      1.06743e+7 
         978.75      1.09259e+7 
        978.919      1.11992e+7 
        979.087      1.15003e+7 
        979.105      1.15343e+7 
        979.205      1.17295e+7 
        979.255      1.18316e+7 
        979.305      1.19369e+7 
        979.505      1.23145e+7 
        979.705      1.27408e+7 
        979.905      1.32139e+7 
        980.105      1.36345e+7 
        980.306      1.40239e+7 
        980.506      1.44388e+7 
        980.906      1.51997e+7 
        981.306      1.59355e+7 
        982.107      1.73738e+7 
        983.493      1.98274e+7 
        983.708      2.02428e+7 
        983.923      2.06728e+7 
        984.354      2.14991e+7 
        985.214      2.30705e+7 
        985.531      2.36355e+7 
        986.075      2.46338e+7 
        986.347      2.51113e+7 
        986.618      2.55903e+7 
        986.889      2.59837e+7 
        987.162       2.6265e+7 
        987.185      2.62883e+7 
        987.433      2.65368e+7 
        987.705      2.67836e+7 
        987.716      2.67937e+7 
        987.982      2.70226e+7 
        988.248      2.73197e+7 
        988.515        2.771e+7 
         988.78       2.8098e+7 
        989.046      2.83745e+7 
        989.262      2.85809e+7 
        989.312      2.86279e+7 
        989.362      2.86772e+7 
        989.462      2.87749e+7 
        989.662      2.88335e+7 
        989.863      2.88509e+7 
