# Koester WD models
# teff = 15000 K (value for the effective temperature for the model. Temperatures are given in K)
# logg = 9.5 log(cm/s2) (value for Log(G) for the model.)
#
# column 1: WAVELENGTH (ANGSTROM), Wavelength in Angstrom
# column 2: FLUX (ERG/CM2/S/A), Flux in erg/cm2/s/A
         899.23          365543 
        904.235          387638 
         908.45          407031 
        909.241          410751 
        910.032          414492 
        911.193          420015 
        911.613          422013 
        911.824          423006 
        911.929          423502 
        912.034          423996 
        912.139          428086 
        912.244          432189 
        912.349          436298 
        912.454          440414 
        912.559          444523 
        912.664          448616 
         912.77          452675 
        912.875          456649 
        912.886          457058 
        913.037          462499 
        913.085          464170 
        913.284          470771 
        913.531          477651 
        913.649          479793 
        913.736          481823 
        913.779          482681 
        913.822          483397 
        913.994          482960 
        914.165          484801 
        914.336          481807 
        914.439          478512 
        914.507          476746 
        914.575          476429 
        914.712          478380 
        914.848          472885 
        914.897          466605 
        914.984          456304 
        915.071          451390 
        915.245          470375 
        915.419          469018 
        915.544          434693 
        915.594          421668 
        915.609          418061 
        915.643          413481 
        915.677          412771 
        915.745          422610 
        915.881          473319 
        916.017          510710 
        916.153          487487 
        916.289          419060 
        916.379          384920 
        916.421          379643 
        916.425          379595 
        916.429          379624 
        916.479          386909 
         916.58          432849 
         916.68          501266 
         916.78          559618 
         916.88          587676 
         916.98          571550 
         917.08          518504 
         917.18          441114 
        917.182          439594 
         917.28          372156 
        917.378          347375 
        917.575          448158 
        917.771          622359 
        917.967          706459 
        918.163          646332 
        918.359          470485 
         918.51          348088 
        918.556          331184 
        918.602          326100 
        918.694          349113 
        918.878          517562 
        919.062          714294 
        919.201          820311 
        919.241          841155 
        919.246          843423 
        919.251          845626 
        919.301          863071 
        919.402          876174 
        919.502          864522 
        919.602          822513 
        919.702          752078 
        919.802          660495 
        919.902          552012 
        920.002          439433 
        920.102          348503 
        920.165          321963 
        920.189          317967 
        920.202          317015 
        920.215          316704 
        920.265          322378 
        920.366          379715 
        920.466          483598 
        920.566          602589 
        920.666          721869 
        920.866          920691 
        921.066      1.04962e+6 
        921.266      1.10399e+6 
        921.467      1.08546e+6 
        921.667          987509 
        921.867          816406 
        922.067          593585 
         922.13          516139 
        922.267          364780 
        922.405          317879 
        922.542          366062 
        922.548          371132 
        922.679          520311 
         922.81          685709 
        922.941          838453 
        923.072          981647 
        923.203      1.10462e+6 
        923.335      1.21549e+6 
        923.466      1.30161e+6 
        923.597      1.36661e+6 
        923.728       1.4101e+6 
        923.859      1.43439e+6 
         923.99       1.4407e+6 
        924.121      1.42769e+6 
        924.252      1.39295e+6 
        924.384      1.33572e+6 
        924.515       1.2559e+6 
        924.646      1.15295e+6 
        924.777      1.03645e+6 
        924.908          900333 
        925.039          752028 
         925.17          585329 
        925.302          415714 
        925.382          343828 
        925.433          329270 
        925.484          327722 
        925.586          344708 
        925.688          444312 
         925.79          580874 
        925.892          715727 
        925.994          840433 
        926.096          960891 
        926.198      1.07377e+6 
        926.232       1.1089e+6 
        926.301      1.17803e+6 
        926.369      1.24776e+6 
        926.505      1.37721e+6 
        926.641       1.4926e+6 
        926.777      1.59331e+6 
        926.913      1.68076e+6 
        927.049      1.75209e+6 
        927.185      1.81113e+6 
        927.322      1.85784e+6 
        927.458      1.89369e+6 
        927.594      1.91695e+6 
         927.73      1.93048e+6 
        927.866       1.9333e+6 
        928.002      1.92501e+6 
        928.006      1.92459e+6 
        928.094      1.90939e+6 
        928.138      1.89895e+6 
        928.182      1.88682e+6 
        928.359      1.82153e+6 
        928.535      1.72908e+6 
        928.711      1.61041e+6 
        928.887      1.48022e+6 
        928.985       1.4015e+6 
        929.037      1.35766e+6 
        929.063      1.33486e+6 
        929.089      1.31134e+6 
        929.125      1.27772e+6 
        929.193       1.2106e+6 
        929.261      1.14285e+6 
        929.398          996450 
        929.493          884955 
        929.525          846219 
        929.534          835306 
        929.543          824194 
        929.593          760429 
        929.617          728554 
        929.655          677528 
        929.693          624853 
        929.769          517138 
        929.827          437580 
        929.883          376281 
         929.91          357711 
        929.939          348167 
        929.954          346738 
        929.968          346282 
        929.982          346197 
        929.996          346213 
         930.01          346269 
        930.024          346332 
        930.038          346439 
        930.052          346643 
        930.081          348783 
        930.137          377459 
        930.201          449838 
        930.247          514244 
        930.249          517191 
        930.251          520135 
        930.301          592963 
        930.326          626707 
        930.402          732645 
        930.478          833433 
         930.63      1.01992e+6 
        930.633      1.02344e+6 
        930.782      1.18989e+6 
        930.931      1.34718e+6 
         931.08      1.48948e+6 
        931.229      1.62401e+6 
        931.379      1.76317e+6 
        931.528      1.89602e+6 
        931.677      2.01838e+6 
        931.788      2.10371e+6 
        931.814      2.12288e+6 
        931.826      2.13161e+6 
        931.838      2.14025e+6 
        931.888      2.17554e+6 
        931.988      2.24222e+6 
        932.188      2.35018e+6 
        932.389      2.44275e+6 
        932.589      2.52119e+6 
        932.789      2.58442e+6 
        932.989      2.63117e+6 
        933.189      2.66708e+6 
        933.347      2.68767e+6 
        933.375      2.69056e+6 
        933.377      2.69076e+6 
        933.389      2.69192e+6 
        933.403      2.69322e+6 
        933.432      2.69552e+6 
         933.46      2.69755e+6 
        933.542      2.70203e+6 
        933.652       2.7045e+6 
        933.762      2.70269e+6 
        933.872      2.69639e+6 
        933.982        2.684e+6 
        934.092      2.66463e+6 
        934.202      2.63925e+6 
        934.312      2.60767e+6 
        934.413      2.57459e+6 
        934.422      2.57162e+6 
        934.533      2.53195e+6 
        934.652      2.48188e+6 
        934.771        2.424e+6 
         934.89      2.35944e+6 
        935.009      2.28633e+6 
        935.026      2.27529e+6 
        935.128      2.21007e+6 
         935.23      2.14726e+6 
        935.332      2.08045e+6 
        935.434      2.01084e+6 
        935.537      1.93835e+6 
        935.639      1.86159e+6 
        935.741      1.78152e+6 
        935.843      1.69759e+6 
        935.945      1.60743e+6 
         935.95      1.60288e+6 
        936.047      1.51248e+6 
        936.144      1.41748e+6 
        936.338      1.21431e+6 
        936.464      1.07017e+6 
        936.532          986152 
        936.601          897430 
        936.645          837410 
        936.714          739330 
        936.737          705891 
        936.829          567975 
        936.887          479055 
        936.944          408087 
        936.973          386271 
        937.001          378147 
        937.015          377525 
        937.029          377453 
        937.043          377503 
        937.058          377572 
        937.072          377635 
        937.086          377701 
        937.101          377770 
        937.115          377849 
        937.143          378804 
         937.15          379844 
        937.186          397009 
        937.199          408369 
         937.25          471343 
        937.314          569649 
        937.341          611989 
        937.442          762964 
        937.543          907006 
        937.645      1.04072e+6 
        937.746      1.16459e+6 
        937.847      1.28041e+6 
        937.896      1.33477e+6 
        937.948      1.39216e+6 
            938      1.44786e+6 
        938.104      1.55595e+6 
        938.208      1.65979e+6 
        938.312      1.75932e+6 
        938.416      1.85355e+6 
         938.52       1.9451e+6 
        938.543      1.96503e+6 
        938.729      2.12125e+6 
        938.914      2.27315e+6 
        938.927      2.28363e+6 
        939.099      2.42441e+6 
        939.271      2.57266e+6 
        939.443      2.71165e+6 
        939.615      2.84381e+6 
        939.788      2.96907e+6 
         939.96      3.09641e+6 
        940.132      3.21583e+6 
        940.304      3.32443e+6 
        940.476      3.42339e+6 
        940.556      3.46716e+6 
        940.648      3.51572e+6 
         940.74      3.56253e+6 
        940.925      3.65019e+6 
        941.109      3.73118e+6 
        941.293      3.80579e+6 
        941.477      3.86881e+6 
        941.661      3.92485e+6 
        941.845      3.97638e+6 
         942.03      4.02337e+6 
        942.214      4.06591e+6 
        942.398      4.10195e+6 
        942.485      4.11693e+6 
        942.582      4.13223e+6 
        942.766      4.15699e+6 
        943.048      4.18353e+6 
        943.329      4.19343e+6 
         943.61      4.18272e+6 
         943.75      4.16993e+6 
        943.891      4.15202e+6 
        944.031      4.12878e+6 
        944.173       4.0977e+6 
        944.313      4.06029e+6 
        944.454      4.01662e+6 
        944.594      3.96661e+6 
        944.725      3.91405e+6 
        944.735      3.90977e+6 
         944.87      3.85477e+6 
        945.016      3.79068e+6 
        945.161      3.72068e+6 
        945.308      3.64472e+6 
        945.454      3.56477e+6 
        945.599      3.47969e+6 
        945.745      3.38868e+6 
         945.89      3.29236e+6 
        946.181      3.10646e+6 
         946.37      2.98109e+6 
        946.473       2.9146e+6 
        946.567      2.85216e+6 
        946.764      2.71685e+6 
        946.961      2.57626e+6 
        947.158      2.42883e+6 
        947.355      2.27423e+6 
        947.553      2.11093e+6 
         947.75      1.93667e+6 
        947.811      1.87942e+6 
        947.947      1.74427e+6 
        948.083      1.60079e+6 
        948.219      1.44688e+6 
        948.355      1.28246e+6 
        948.437       1.1755e+6 
        948.491      1.10085e+6 
        948.546      1.02312e+6 
        948.654          856715 
        948.717          755000 
        948.747          705636 
        948.762          680428 
        948.777          654686 
        948.781          647822 
        948.835          553973 
        948.837          550765 
        948.893          469524 
        948.922          443938 
        948.951          435726 
        948.966          435538 
         948.98          435598 
        948.994          435670 
        949.009          435745 
        949.023          435817 
        949.037          435890 
        949.052          435968 
        949.066          436040 
        949.095          436468 
        949.153          470959 
         949.23          589033 
        949.258          639308 
        949.269          658349 
         949.28          677528 
         949.33          761836 
         949.36          811656 
         949.43          924542 
          949.5      1.03378e+6 
         949.64      1.23443e+6 
        949.781      1.41546e+6 
        949.795      1.43265e+6 
        949.879      1.53402e+6 
        949.921      1.58376e+6 
        949.963      1.63242e+6 
        950.131      1.81788e+6 
        950.299      1.99083e+6 
        950.467      2.15113e+6 
        950.635      2.30443e+6 
        950.719      2.37871e+6 
        950.804      2.45184e+6 
        950.888      2.52384e+6 
        951.056      2.66512e+6 
        951.224      2.80299e+6 
        951.392      2.93789e+6 
        951.728      3.20223e+6 
        952.065      3.47903e+6 
        952.401      3.76671e+6 
        952.738      4.05036e+6 
        953.413      4.62527e+6 
         953.51      4.71173e+6 
        954.135      5.25359e+6 
        954.449      5.50885e+6 
        954.762      5.75606e+6 
        955.075       5.9749e+6 
        955.387      6.18024e+6 
        955.701      6.37693e+6 
        956.014      6.55644e+6 
        956.641       6.9028e+6 
        957.266      7.22629e+6 
        957.893      7.52499e+6 
        958.518      7.78886e+6 
            959      7.96626e+6 
        959.145      8.01452e+6 
        959.289      8.06035e+6 
        959.578      8.13842e+6 
        959.867      8.20659e+6 
        959.883      8.21008e+6 
        960.157      8.26443e+6 
         960.43      8.30791e+6 
        960.703      8.34577e+6 
        960.976      8.37253e+6 
        961.249       8.3872e+6 
        961.523      8.38937e+6 
        961.796       8.3786e+6 
        962.069      8.35513e+6 
        962.342      8.31708e+6 
        962.616       8.2654e+6 
        962.889      8.19937e+6 
        963.162      8.11885e+6 
        963.186      8.11115e+6 
        963.435      8.02545e+6 
        963.447      8.02096e+6 
        963.708      7.91779e+6 
         963.97        7.804e+6 
        964.231      7.67557e+6 
        964.753      7.39757e+6 
        965.276      7.08325e+6 
        965.798      6.74151e+6 
        966.321      6.37932e+6 
        966.843       6.0083e+6 
        967.365      5.62757e+6 
        967.744      5.34712e+6 
        967.888      5.23989e+6 
        968.032      5.13119e+6 
         968.32      4.90707e+6 
        968.496      4.76887e+6 
        968.897      4.44485e+6 
        969.097      4.27621e+6 
        969.297      4.10257e+6 
        969.468      3.94839e+6 
        969.497      3.92181e+6 
        969.697        3.734e+6 
        969.927      3.50749e+6 
        970.042      3.38902e+6 
        970.156      3.26704e+6 
        970.271      3.14064e+6 
        970.385      3.00954e+6 
          970.5      2.87377e+6 
        970.614      2.73268e+6 
        970.729      2.58208e+6 
         970.75      2.55298e+6 
        970.812      2.46838e+6 
        970.843      2.42531e+6 
        970.874      2.38136e+6 
        970.998        2.197e+6 
        971.122      1.99795e+6 
        971.146      1.95931e+6 
        971.247      1.77766e+6 
        971.348      1.57687e+6 
        971.449       1.3534e+6 
        971.516      1.19131e+6 
         971.55      1.10341e+6 
        971.585      1.01276e+6 
        971.605          958930 
        971.644          853407 
        971.654          826223 
        971.703          701455 
        971.732          637517 
        971.762          588291 
        971.778          572920 
        971.792          566929 
        971.806          565992 
        971.821          566068 
        971.827          566106 
        971.833          566143 
        971.836          566162 
        971.839          566181 
        971.851          566260 
        971.866          566354 
         971.88          566731 
         971.91          582310 
        971.969          689426 
        972.037          865147 
        972.087      1.00166e+6 
        972.137      1.13418e+6 
         972.15      1.16754e+6 
        972.237      1.38206e+6 
        972.324      1.57627e+6 
        972.499      1.91302e+6 
        972.548      1.99823e+6 
        972.673      2.19839e+6 
        972.798        2.381e+6 
        972.923      2.54775e+6 
        973.048      2.70255e+6 
        973.173      2.84717e+6 
        973.298      2.98251e+6 
        973.423      3.11251e+6 
        973.548      3.23707e+6 
        973.601      3.28831e+6 
        973.673       3.3566e+6 
        973.746      3.42374e+6 
         973.89      3.55437e+6 
        974.034      3.68006e+6 
        974.178      3.80082e+6 
        974.466      4.03751e+6 
        974.754      4.26418e+6 
        975.043      4.48001e+6 
        975.331      4.69568e+6 
        975.556        4.846e+6 
        975.598      4.87418e+6 
        975.619      4.88826e+6 
         975.64      4.90233e+6 
        975.724      4.95882e+6 
        975.892      5.07251e+6 
        976.228       5.2933e+6 
        976.565      5.52138e+6 
        976.901      5.76558e+6 
        977.237      6.03729e+6 
        977.574      6.29845e+6 
         977.91      6.57862e+6 
        978.246      6.85709e+6 
        978.414      7.00515e+6 
        978.582      7.16302e+6 
         978.75      7.33728e+6 
        978.919      7.52465e+6 
        979.087      7.72929e+6 
        979.105      7.75248e+6 
        979.205      7.88647e+6 
        979.255      7.95721e+6 
        979.305      8.03026e+6 
        979.505      8.29104e+6 
        979.705        8.585e+6 
        979.905      8.91813e+6 
        980.105      9.20832e+6 
        980.306      9.47831e+6 
        980.506      9.77196e+6 
        980.706      1.00666e+7 
        980.906      1.03103e+7 
        981.106      1.05628e+7 
        981.506      1.10853e+7 
        982.307       1.2102e+7 
        982.707      1.25979e+7 
        983.108       1.3108e+7 
        983.508      1.36395e+7 
        983.863      1.41386e+7 
        983.893      1.41817e+7 
        983.908      1.42034e+7 
        983.923       1.4225e+7 
        983.983      1.43155e+7 
        984.103      1.44887e+7 
        984.344      1.48227e+7 
        984.824      1.55039e+7 
        984.951      1.56719e+7 
        985.304      1.61396e+7 
        985.785      1.67908e+7 
        986.202      1.73512e+7 
         986.41      1.76224e+7 
        986.618      1.78942e+7 
        986.826       1.8119e+7 
        987.035      1.82666e+7 
        987.244      1.84086e+7 
        987.452      1.85474e+7 
         987.66      1.86727e+7 
        987.868       1.8793e+7 
        988.077      1.89088e+7 
        988.286      1.90941e+7 
        988.494      1.93014e+7 
        988.702      1.95101e+7 
        988.911      1.96854e+7 
        988.926      1.96954e+7 
        989.119      1.98214e+7 
