# Koester WD models
# teff = 15750 K (value for the effective temperature for the model. Temperatures are given in K)
# logg = 9 log(cm/s2) (value for Log(G) for the model.)
#
# column 1: WAVELENGTH (ANGSTROM), Wavelength in Angstrom
# column 2: FLUX (ERG/CM2/S/A), Flux in erg/cm2/s/A
         899.23          490073 
        904.235          518674 
         908.45          543759 
        909.241          548569 
        910.032          553404 
        911.193          560554 
        911.613          563137 
        911.824          564419 
        911.929          565056 
        912.034          565691 
        912.139          574487 
        912.244          583378 
        912.349          592303 
        912.454          601254 
        912.559          610207 
        912.664          619114 
         912.77          627926 
        912.875          636440 
        912.886          637303 
        913.085          651105 
        913.284          661773 
        913.339          663464 
        913.435          666395 
        913.483          668572 
        913.531          670152 
        913.625          670435 
        913.724          669985 
        913.822          671987 
        913.871          672131 
        914.018          664563 
        914.165          655807 
        914.312          663913 
        914.343          663517 
        914.459          638032 
        914.575          615623 
        914.692          643546 
        914.808          665317 
        914.924          619045 
        915.009          570146 
         915.04          559590 
        915.071          556304 
        915.133          573444 
        915.257          656734 
        915.381          689234 
        915.505          604106 
        915.609          516915 
        915.617          512975 
         915.63          506076 
        915.643          501024 
        915.677          495684 
        915.745          520992 
        915.881          665292 
        916.017          761855 
        916.153          714772 
        916.289          553828 
        916.379          464173 
        916.421          450398 
        916.425          450159 
        916.429          450109 
        916.479          465527 
         916.58          574908 
         916.68          725325 
         916.78          843753 
         916.88          898323 
         916.98          872477 
         917.08          775364 
         917.18          626223 
        917.182          622852 
         917.28          473520 
        917.378          417153 
        917.575          632959 
        917.771          951698 
        917.967      1.09945e+6 
        918.163      1.00099e+6 
        918.359          700110 
         918.51          446386 
        918.556          408834 
        918.602          398678 
        918.694          447536 
        918.878          775907 
        919.062      1.10861e+6 
        919.201      1.28679e+6 
        919.241       1.3221e+6 
        919.246      1.32594e+6 
        919.251      1.32967e+6 
        919.301      1.35912e+6 
        919.402        1.382e+6 
        919.502      1.36273e+6 
        919.602      1.29358e+6 
        919.702      1.17967e+6 
        919.802      1.02695e+6 
        919.902          847727 
        920.002          654381 
        920.102          462615 
        920.165          402410 
        920.189          395084 
        920.202          393516 
        920.215          393035 
        920.265          402912 
        920.366          532783 
        920.466          731262 
        920.566          929569 
        920.766      1.29603e+6 
        920.966      1.56743e+6 
        921.166      1.71602e+6 
        921.367      1.74432e+6 
        921.567      1.65052e+6 
        921.767      1.43378e+6 
        921.967       1.1138e+6 
        922.167          714257 
        922.331          416396 
        922.368          400248 
        922.405          397518 
        922.479          417160 
        922.627          688342 
         922.67          778216 
         922.74          925852 
        922.775          996190 
         922.81      1.06925e+6 
         922.95      1.33267e+6 
         923.09      1.57347e+6 
         923.23      1.78118e+6 
        923.371      1.95677e+6 
        923.511      2.09114e+6 
        923.651      2.18636e+6 
        923.791      2.24256e+6 
        923.931      2.26789e+6 
        924.071      2.26116e+6 
        924.211       2.2166e+6 
        924.352      2.13255e+6 
        924.492      2.00377e+6 
        924.632      1.83493e+6 
        924.772      1.63853e+6 
        924.912      1.40771e+6 
        925.052      1.15303e+6 
        925.192          860196 
        925.333          545016 
        925.434          413685 
        925.462          410920 
        925.473          410754 
        925.484          410744 
        925.534          414194 
        925.634          544859 
        925.734          772672 
        925.834          995005 
        925.934      1.20395e+6 
        926.034      1.39443e+6 
        926.134      1.57735e+6 
        926.232      1.74288e+6 
        926.234      1.74611e+6 
        926.301       1.8526e+6 
        926.335      1.90697e+6 
        926.369      1.95979e+6 
        926.505      2.16509e+6 
        926.641      2.34413e+6 
        926.777      2.49799e+6 
        926.913      2.62784e+6 
        927.049      2.73177e+6 
        927.185      2.81701e+6 
        927.322      2.88459e+6 
        927.458       2.9365e+6 
        927.594      2.96984e+6 
         927.73      2.98964e+6 
        927.866      2.99414e+6 
        928.002      2.98308e+6 
        928.006       2.9825e+6 
        928.094      2.96064e+6 
        928.138      2.94536e+6 
        928.182      2.92748e+6 
        928.359       2.8298e+6 
        928.535      2.68806e+6 
        928.711      2.50988e+6 
        928.887      2.31353e+6 
        928.985      2.19288e+6 
        929.037      2.12442e+6 
        929.063      2.08891e+6 
        929.089      2.05267e+6 
        929.125      2.00052e+6 
        929.193       1.8975e+6 
        929.261      1.79023e+6 
        929.398      1.55971e+6 
        929.493      1.38499e+6 
        929.525      1.32324e+6 
        929.534      1.30556e+6 
        929.543      1.28779e+6 
        929.593      1.18655e+6 
        929.617      1.13594e+6 
        929.655      1.05306e+6 
        929.693          968154 
        929.769          790440 
        929.827          649273 
        929.883          520483 
         929.91          471120 
        929.939          440649 
        929.954          435607 
        929.968          433958 
        929.982          433665 
        929.996          433665 
         930.01          433731 
        930.024          433813 
        930.038          433961 
        930.052          434401 
        930.081          441409 
        930.137          522067 
        930.201          671726 
        930.247          784968 
        930.249          789906 
        930.251          794845 
        930.301          915052 
        930.326          970567 
        930.402      1.14185e+6 
        930.478      1.30178e+6 
         930.63      1.59629e+6 
        930.633      1.60197e+6 
        930.782       1.8638e+6 
        930.931      2.10792e+6 
         931.08      2.32932e+6 
        931.229      2.53267e+6 
        931.379      2.74141e+6 
        931.516      2.92552e+6 
        931.528      2.94141e+6 
        931.677      3.12578e+6 
        931.838      3.30558e+6 
        931.999      3.46342e+6 
         932.16      3.58427e+6 
        932.321      3.69219e+6 
        932.483       3.7853e+6 
        932.644      3.86746e+6 
        932.805      3.93469e+6 
        932.966      3.98769e+6 
        933.127      4.03098e+6 
        933.173       4.0416e+6 
        933.265      4.06045e+6 
        933.288      4.06462e+6 
        933.403      4.08228e+6 
        933.432      4.08564e+6 
        933.542      4.09535e+6 
        933.652      4.09953e+6 
        933.762      4.09796e+6 
        933.872      4.09026e+6 
        933.982      4.07345e+6 
        934.092      4.04615e+6 
        934.202       4.0104e+6 
        934.312      3.96548e+6 
        934.413      3.91772e+6 
        934.422      3.91336e+6 
        934.533      3.85517e+6 
        934.652      3.78147e+6 
        934.771      3.69655e+6 
         934.89      3.60121e+6 
        935.009       3.4937e+6 
        935.026       3.4774e+6 
        935.128      3.38227e+6 
         935.23      3.29308e+6 
        935.332      3.19827e+6 
        935.434      3.09784e+6 
        935.537      2.99119e+6 
        935.639      2.87828e+6 
        935.741      2.75999e+6 
        935.843      2.63333e+6 
        935.945      2.49708e+6 
         935.95      2.49013e+6 
        936.047      2.35087e+6 
        936.144      2.20374e+6 
        936.338      1.89055e+6 
        936.464      1.66627e+6 
        936.532      1.53536e+6 
        936.601      1.39551e+6 
        936.645      1.30105e+6 
        936.714      1.14462e+6 
        936.737      1.09099e+6 
        936.829          865481 
        936.887          711737 
        936.944          565908 
        936.973          506205 
        937.001          476024 
        937.015          472665 
        937.029          472043 
        937.043          472068 
        937.058          472150 
        937.072          472228 
        937.086          472307 
        937.101          472395 
        937.115          472527 
        937.143          476831 
         937.15          481103 
        937.186          536034 
        937.199          565345 
         937.25          696174 
        937.314          867620 
        937.341          937640 
        937.442      1.18201e+6 
        937.543      1.40976e+6 
        937.645      1.61942e+6 
        937.746      1.81281e+6 
        937.847      1.99136e+6 
        937.896      2.07595e+6 
        937.948      2.16331e+6 
            938      2.24846e+6 
        938.104      2.41536e+6 
        938.208      2.57426e+6 
        938.312      2.72418e+6 
        938.416      2.86547e+6 
         938.52      2.99962e+6 
        938.543      3.02884e+6 
        938.624      3.13089e+6 
        938.729      3.25701e+6 
        938.914      3.47281e+6 
        938.927      3.48758e+6 
        939.099       3.6882e+6 
        939.271        3.905e+6 
        939.443      4.10782e+6 
        939.615      4.29933e+6 
        939.788      4.48004e+6 
         939.96      4.66175e+6 
        940.132      4.83287e+6 
        940.304      4.98769e+6 
        940.476      5.12783e+6 
        940.556      5.19026e+6 
        940.648      5.26003e+6 
         940.74      5.32739e+6 
        940.925        5.456e+6 
        941.109       5.5757e+6 
        941.293      5.68663e+6 
        941.477       5.7805e+6 
        941.661      5.86429e+6 
        941.845      5.94129e+6 
         942.03      6.01141e+6 
        942.214      6.07483e+6 
        942.398      6.12812e+6 
        942.485      6.15017e+6 
        942.582      6.17254e+6 
        942.766      6.20838e+6 
        943.048      6.24533e+6 
        943.329      6.25742e+6 
         943.61      6.23911e+6 
         943.75      6.21875e+6 
        943.891      6.19073e+6 
        944.031      6.15482e+6 
        944.173      6.10594e+6 
        944.313      6.04741e+6 
        944.454       5.9793e+6 
        944.594       5.9018e+6 
        944.725      5.82121e+6 
        944.735      5.81471e+6 
         944.87      5.73168e+6 
        945.016      5.63523e+6 
        945.161      5.53005e+6 
        945.308      5.41708e+6 
        945.454      5.29786e+6 
        945.599      5.17138e+6 
        945.745      5.03635e+6 
         945.89      4.89457e+6 
        946.181      4.63385e+6 
        946.473       4.3659e+6 
        946.764      4.08963e+6 
        946.952      3.90211e+6 
        947.055      3.79558e+6 
        947.158       3.6871e+6 
        947.261      3.57507e+6 
        947.364      3.45892e+6 
        947.468      3.33829e+6 
        947.571      3.21313e+6 
        947.674      3.08093e+6 
        947.777      2.94206e+6 
         947.88      2.79319e+6 
        947.883      2.78869e+6 
        947.983      2.63407e+6 
        948.083      2.47122e+6 
        948.183      2.30047e+6 
        948.283      2.12029e+6 
        948.383      1.92793e+6 
        948.421      1.85006e+6 
        948.483      1.71887e+6 
        948.546      1.57905e+6 
        948.563      1.53955e+6 
         948.67       1.2766e+6 
        948.777          990890 
        948.843          795850 
        948.875          699460 
        948.884          673564 
        948.893          649644 
        948.922          578977 
        948.935          557127 
        948.943          549144 
        948.951          545013 
        948.966          543213 
         948.98          543185 
        948.994          543272 
        949.009          543367 
        949.023          543455 
        949.037          543543 
        949.052          543637 
        949.066          543728 
        949.095          545921 
        949.153          651566 
         949.23          879718 
        949.258          964507 
        949.269          996215 
         949.28      1.02783e+6 
         949.33      1.16499e+6 
         949.36       1.2446e+6 
         949.43      1.42456e+6 
          949.5      1.59479e+6 
         949.64      1.90693e+6 
        949.781      2.18623e+6 
        949.795       2.2125e+6 
        949.879      2.36873e+6 
        949.921      2.44392e+6 
        949.963      2.51788e+6 
        950.131      2.80072e+6 
        950.299      3.05885e+6 
        950.467      3.29462e+6 
        950.635      3.51422e+6 
        950.719      3.61977e+6 
        950.804      3.72276e+6 
        950.888      3.82354e+6 
        951.056      4.01976e+6 
        951.224       4.2114e+6 
        951.392      4.39895e+6 
        951.728      4.76353e+6 
        951.896      4.95457e+6 
        952.065      5.14367e+6 
        952.233      5.34222e+6 
        952.401      5.55207e+6 
        952.688      5.89919e+6 
        952.737      5.95907e+6 
        952.788      6.02146e+6 
        952.888      6.14307e+6 
        953.089      6.38387e+6 
        953.489      6.88153e+6 
        953.889      7.39468e+6 
         954.29      7.88669e+6 
         954.49      8.12783e+6 
         954.69      8.36587e+6 
         954.89      8.59446e+6 
         955.09      8.80243e+6 
         955.29      9.00625e+6 
        955.491      9.20477e+6 
        955.768      9.47203e+6 
        955.891      9.57941e+6 
        956.014      9.68283e+6 
         956.26      9.91835e+6 
        956.506      1.01447e+7 
        956.999      1.05689e+7 
        957.491      1.09585e+7 
        957.984      1.13106e+7 
        958.476      1.16256e+7 
        958.648      1.17257e+7 
        958.969      1.18977e+7 
        959.289      1.20502e+7 
        959.609       1.2182e+7 
        959.929      1.22937e+7 
        960.069      1.23362e+7 
         960.25      1.23842e+7 
         960.43      1.24245e+7 
         960.79      1.25123e+7 
         961.15      1.25627e+7 
        961.511      1.25754e+7 
        961.871      1.25472e+7 
        962.231      1.24788e+7 
        962.592      1.23695e+7 
        962.952      1.22185e+7 
        963.114       1.2137e+7 
        963.312      1.20276e+7 
        963.393      1.19797e+7 
        963.672      1.17994e+7 
        963.952      1.15972e+7 
        964.231      1.13749e+7 
         964.51      1.11407e+7 
        964.789      1.08905e+7 
        965.069       1.0626e+7 
        965.348      1.03514e+7 
        965.906      9.76577e+6 
        966.465      9.16745e+6 
        967.131      8.44385e+6 
        967.582      7.95586e+6 
        968.032      7.46659e+6 
        968.568      6.86843e+6 
        968.933      6.45293e+6 
        969.297      6.01992e+6 
        969.396      5.89752e+6 
        969.661      5.55927e+6 
        969.794      5.38368e+6 
        969.927      5.20241e+6 
        970.059      5.01398e+6 
        970.192      4.81839e+6 
        970.324      4.61462e+6 
        970.457      4.40018e+6 
         970.57      4.20741e+6 
        970.589      4.17304e+6 
        970.722      3.92771e+6 
        970.874      3.62163e+6 
        971.026      3.28312e+6 
        971.179      2.90238e+6 
         971.28      2.61809e+6 
        971.314      2.51568e+6 
        971.331      2.46312e+6 
        971.348       2.4088e+6 
        971.416      2.18318e+6 
        971.519      1.80267e+6 
        971.552      1.67011e+6 
        971.585      1.53347e+6 
        971.599      1.47404e+6 
        971.644      1.27934e+6 
        971.651      1.24888e+6 
        971.703      1.02079e+6 
        971.732          898555 
        971.762          787839 
        971.778          742038 
        971.792          715070 
        971.806          703377 
        971.821          702234 
        971.827          702281 
        971.833          702325 
        971.836          702350 
        971.839          702372 
        971.851          702463 
        971.866          702727 
         971.88          708872 
         971.91          770246 
        971.969          997374 
        972.037      1.29751e+6 
        972.087       1.5152e+6 
        972.137      1.72453e+6 
         972.15      1.77723e+6 
        972.237      2.10909e+6 
        972.324      2.40634e+6 
        972.499      2.91935e+6 
        972.548      3.04745e+6 
        972.673      3.34796e+6 
        972.798      3.61927e+6 
        972.923      3.86303e+6 
        973.048      4.08621e+6 
        973.173       4.2905e+6 
        973.298       4.4807e+6 
        973.351      4.55867e+6 
        973.423      4.66146e+6 
        973.548      4.83299e+6 
        973.746      5.08929e+6 
        973.943      5.33427e+6 
         974.14      5.56345e+6 
        974.337       5.7865e+6 
        974.731      6.22139e+6 
        975.126      6.63131e+6 
          975.4      6.90789e+6 
         975.52      7.01948e+6 
         975.64      7.13123e+6 
         975.88      7.35833e+6 
        976.361      7.80582e+6 
        976.601      8.03927e+6 
        976.841      8.28689e+6 
        977.081      8.55207e+6 
        977.321      8.83592e+6 
        977.802      9.37143e+6 
        978.042      9.66153e+6 
        978.282      9.94292e+6 
        978.522      1.02478e+7 
        978.762      1.05878e+7 
        979.003      1.09737e+7 
        979.181      1.12947e+7 
        979.243      1.14139e+7 
        979.305      1.15378e+7 
        979.429      1.17563e+7 
        979.553      1.19896e+7 
        979.677      1.22406e+7 
        979.801      1.25095e+7 
        979.925      1.27998e+7 
        980.049      1.30547e+7 
        980.173      1.32805e+7 
        980.298      1.35137e+7 
        980.422      1.37546e+7 
        980.546      1.40069e+7 
        980.794      1.44648e+7 
        981.042      1.48845e+7 
         981.29      1.53224e+7 
        981.636      1.59119e+7 
        981.787      1.61764e+7 
        982.207      1.69089e+7 
        982.779      1.78785e+7 
        983.066      1.83691e+7 
        983.351      1.88717e+7 
        983.637      1.94078e+7 
        983.923      1.99714e+7 
        984.496      2.10521e+7 
         984.66      2.13651e+7 
        985.067      2.20804e+7 
         985.64      2.30996e+7 
        986.129      2.40075e+7 
        986.373      2.44426e+7 
        986.618      2.48796e+7 
        986.863      2.52529e+7 
        987.108      2.55123e+7 
        987.353      2.57619e+7 
        987.597       2.5996e+7 
        987.842      2.62129e+7 
        987.964      2.63174e+7 
