# Koester WD models
# teff = 15000 K (value for the effective temperature for the model. Temperatures are given in K)
# logg = 8.75 log(cm/s2) (value for Log(G) for the model.)
#
# column 1: WAVELENGTH (ANGSTROM), Wavelength in Angstrom
# column 2: FLUX (ERG/CM2/S/A), Flux in erg/cm2/s/A
         899.23          244834 
        904.235          260280 
         908.45          273877 
        909.241          276488 
        910.032          279118 
        911.193          283007 
        911.613          284417 
        911.824          285118 
        911.929          285467 
        912.034          285815 
        912.139          290544 
        912.244          295360 
        912.349          300261 
        912.454          305318 
        912.559          310499 
        912.664          315724 
         912.77          320942 
        912.875          326044 
        912.886          326562 
         912.98          330741 
        913.085          334445 
        913.284          339452 
        913.339          339879 
        913.435          340451 
        913.483          341394 
        913.531          342214 
        913.625          341947 
        913.724          339722 
        913.822          339524 
        913.871          340231 
        914.018          336622 
        914.165          324511 
        914.312          339459 
        914.343          340957 
        914.459          319858 
        914.575          299491 
        914.692          325309 
        914.808          351296 
        914.924          318815 
        915.009          282287 
         915.04          274682 
        915.071          272449 
        915.133          284104 
        915.257          347667 
        915.381          378559 
        915.505          322042 
        915.609          264203 
        915.617          261648 
         915.63          257242 
        915.643          254246 
        915.677          251092 
        915.745          265725 
        915.881          361324 
        916.017          434108 
        916.153          404857 
        916.289          298361 
        916.379          244366 
        916.421          237159 
        916.425          237043 
        916.429          237013 
        916.479          244884 
         916.58          310808 
         916.68          410355 
         916.78          491964 
         916.88          529691 
         916.98          516707 
         917.08          454372 
         917.18          355079 
        917.182          352763 
         917.28          258395 
        917.378          228350 
        917.575          358575 
        917.771          569546 
        917.967          663033 
        918.163          605404 
        918.359          413738 
         918.51          248860 
        918.556          229151 
        918.602          224903 
        918.694          249510 
        918.878          462873 
        919.062          673592 
        919.201          781166 
        919.241          801895 
        919.246          804179 
        919.251          806397 
        919.301          823217 
        919.402          836279 
        919.502          825570 
        919.602          786711 
        919.702          721058 
        919.802          627857 
        919.902          515752 
        920.002          388433 
        920.102          262606 
        920.165          229504 
        920.189          226881 
        920.202          226393 
        920.215          226265 
        920.265          229805 
        920.366          306171 
        920.466          439989 
        920.566          568496 
        920.666          687286 
        920.766          789159 
        920.866          874013 
        920.966          939996 
        921.066          987010 
        921.166      1.01786e+6 
        921.266      1.03274e+6 
        921.367      1.03345e+6 
        921.467      1.01827e+6 
        921.567          986482 
        921.667          937030 
        921.767          868126 
        921.867          784603 
        921.967          684085 
        922.067          565053 
        922.167          432296 
        922.267          294216 
        922.331          238987 
        922.368          232191 
        922.405          231559 
        922.479          239446 
        922.627          414762 
         922.67          473900 
         922.74          568735 
        922.775          613085 
         922.81          657567 
         922.95          813880 
         923.09          946867 
         923.23      1.05921e+6 
        923.371      1.14904e+6 
        923.511      1.21773e+6 
        923.651       1.2667e+6 
        923.791       1.2969e+6 
        923.931      1.31096e+6 
        924.071      1.30838e+6 
        924.211      1.28562e+6 
        924.352      1.24135e+6 
        924.492      1.17406e+6 
        924.632      1.08767e+6 
        924.772          984559 
        924.912          858305 
        925.052          710455 
        925.192          528023 
        925.333          319808 
        925.434          241230 
        925.462          240665 
        925.473          240668 
        925.484          240697 
        925.534          241541 
        925.634          319635 
        925.734          471512 
        925.834          614228 
        925.934          741768 
        926.034          852440 
        926.134          953546 
        926.232      1.04365e+6 
        926.234      1.04538e+6 
        926.301       1.1015e+6 
        926.335      1.12947e+6 
        926.369      1.15649e+6 
        926.505      1.26416e+6 
        926.641      1.36098e+6 
        926.777      1.44471e+6 
        926.913       1.5157e+6 
        927.049      1.57181e+6 
        927.185      1.61796e+6 
        927.322      1.65519e+6 
        927.458      1.68426e+6 
        927.594      1.70326e+6 
         927.73      1.71486e+6 
        927.866      1.71764e+6 
        928.002      1.71173e+6 
        928.006      1.71141e+6 
        928.094      1.69907e+6 
        928.138      1.69039e+6 
        928.182      1.68024e+6 
        928.359      1.62494e+6 
        928.535      1.54457e+6 
        928.711      1.44945e+6 
        928.887      1.34684e+6 
        928.985      1.28384e+6 
        929.037      1.24855e+6 
        929.063      1.23038e+6 
        929.089      1.21178e+6 
        929.125       1.1849e+6 
        929.193      1.13138e+6 
        929.261      1.07477e+6 
        929.398          948745 
        929.493          850332 
        929.525          814257 
        929.534          803946 
        929.543          793535 
        929.593          732830 
        929.617          701913 
        929.655          650991 
        929.693          597613 
        929.769          482574 
        929.827          388804 
        929.883          304462 
         929.91          273441 
        929.939          257192 
        929.954          255295 
        929.968          254951 
        929.982          254955 
        929.996          254996 
         930.01          255041 
        930.024          255087 
        930.038          255138 
        930.052          255224 
        930.081          257658 
        930.137          305433 
        930.201          403795 
        930.247          478832 
        930.249          482106 
        930.251          485382 
        930.301          563442 
        930.326          599180 
        930.402          705762 
        930.478          802350 
         930.63          970265 
        930.633          973379 
        930.782      1.11615e+6 
        930.931      1.24362e+6 
         931.08      1.35863e+6 
        931.229      1.46606e+6 
        931.379      1.57749e+6 
        931.528        1.689e+6 
        931.677      1.79656e+6 
        931.788      1.87005e+6 
        931.814      1.88653e+6 
        931.826      1.89401e+6 
        931.838      1.90142e+6 
        931.888      1.93139e+6 
        931.988      1.98794e+6 
        932.188      2.07263e+6 
        932.389      2.14373e+6 
        932.589      2.20299e+6 
        932.789      2.25213e+6 
        932.989      2.29046e+6 
        933.189      2.32034e+6 
        933.347      2.33797e+6 
        933.375      2.34051e+6 
        933.377      2.34068e+6 
        933.389      2.34171e+6 
        933.403      2.34287e+6 
        933.432      2.34501e+6 
         933.46      2.34695e+6 
        933.542       2.3515e+6 
        933.652      2.35495e+6 
        933.762      2.35541e+6 
        933.872      2.35247e+6 
        933.982      2.34381e+6 
        934.092      2.32828e+6 
        934.202      2.30772e+6 
        934.312      2.28184e+6 
        934.413      2.25392e+6 
        934.422      2.25129e+6 
        934.533      2.21617e+6 
        934.652      2.17192e+6 
        934.771      2.12137e+6 
         934.89      2.06506e+6 
        935.009      2.00209e+6 
        935.026      1.99261e+6 
        935.128      1.93825e+6 
         935.23      1.88846e+6 
        935.332      1.83548e+6 
        935.434      1.77915e+6 
        935.537      1.71959e+6 
        935.639        1.657e+6 
        935.741      1.59251e+6 
        935.746      1.58924e+6 
        935.843      1.52425e+6 
        935.945      1.45168e+6 
        936.144      1.29914e+6 
        936.343      1.13253e+6 
        936.484          994210 
        936.542          930153 
        936.601          860523 
        936.605          855553 
        936.717          704361 
        936.829          529720 
        936.894          416415 
        936.938          342173 
        936.941          337658 
        936.944          333226 
        936.973          295308 
        936.987          284592 
        936.994          281505 
        937.001          279794 
        937.015          278726 
        937.029          278655 
        937.043          278701 
        937.058          278754 
        937.072          278803 
        937.086          278852 
        937.101          278904 
        937.115          278955 
        937.143          280292 
         937.15          282055 
        937.186          313811 
        937.199          332805 
         937.25          418203 
        937.314          531017 
        937.341          577450 
        937.442          731928 
        937.543          869719 
        937.645          990783 
        937.746      1.09746e+6 
        937.847      1.19311e+6 
        937.896      1.23707e+6 
        937.948      1.28239e+6 
            938      1.32632e+6 
        938.104      1.41287e+6 
        938.208      1.49676e+6 
        938.312        1.577e+6 
        938.416      1.65356e+6 
         938.52      1.72706e+6 
        938.543      1.74329e+6 
        938.729      1.87095e+6 
        938.914      1.99188e+6 
        938.927      2.00015e+6 
        939.099      2.11352e+6 
        939.271      2.24041e+6 
        939.443      2.36077e+6 
        939.615      2.47602e+6 
        939.788      2.58463e+6 
         939.96      2.69215e+6 
        940.132      2.79348e+6 
        940.304       2.8825e+6 
        940.476      2.96168e+6 
        940.556      2.99709e+6 
        940.648      3.03689e+6 
         940.74      3.07555e+6 
        940.925      3.15397e+6 
        941.109      3.22827e+6 
        941.293      3.29798e+6 
        941.477      3.35805e+6 
        941.661      3.41208e+6 
        941.845       3.4616e+6 
         942.03      3.50668e+6 
        942.214      3.54758e+6 
        942.398      3.58173e+6 
        942.485      3.59568e+6 
        942.582      3.60972e+6 
        942.766      3.63171e+6 
        943.048      3.65295e+6 
        943.188      3.65769e+6 
        943.329      3.65757e+6 
        943.469      3.65286e+6 
         943.61      3.64349e+6 
         943.75      3.62945e+6 
        943.891      3.61063e+6 
        944.031      3.58716e+6 
        944.173      3.55412e+6 
        944.313      3.51513e+6 
        944.454      3.47042e+6 
        944.594      3.42013e+6 
        944.725      3.36879e+6 
        944.735      3.36468e+6 
         944.87      3.31177e+6 
        945.016      3.25067e+6 
        945.161      3.18451e+6 
        945.308      3.11348e+6 
        945.454      3.03805e+6 
        945.599      2.95876e+6 
        945.745       2.8752e+6 
         945.89      2.78906e+6 
        946.036      2.71752e+6 
        946.181       2.6441e+6 
        946.473      2.49579e+6 
        946.764      2.34106e+6 
        946.952      2.23688e+6 
        947.055      2.17775e+6 
        947.158       2.1178e+6 
        947.364      1.99219e+6 
        947.468      1.92635e+6 
        947.571      1.85814e+6 
        947.674      1.78655e+6 
        947.777      1.71215e+6 
         947.88      1.63305e+6 
        947.883      1.63068e+6 
        947.983      1.54992e+6 
        948.083      1.46555e+6 
        948.183      1.37676e+6 
        948.283        1.282e+6 
        948.383      1.17668e+6 
        948.421      1.13372e+6 
        948.483      1.05896e+6 
        948.546          977406 
        948.563          953973 
         948.67          793082 
        948.777          608828 
        948.843          480708 
        948.875          417445 
        948.884          401040 
        948.893          385464 
        948.922          340059 
        948.935          328246 
        948.943          324658 
        948.951          323213 
        948.966          322777 
         948.98          322821 
        948.994          322874 
        949.009          322934 
        949.023          322987 
        949.037          323044 
        949.052          323103 
        949.066          323157 
        949.095          323779 
        949.153          386661 
         949.23          536091 
        949.258          591018 
        949.269          612252 
         949.28          633345 
         949.33          721885 
         949.36          772888 
         949.43          884855 
          949.5          987626 
         949.64      1.16738e+6 
        949.781      1.32069e+6 
        949.795      1.33468e+6 
        949.879      1.41677e+6 
        949.921      1.45613e+6 
        949.963      1.49478e+6 
        950.131      1.64264e+6 
        950.299      1.78067e+6 
        950.467      1.90874e+6 
        950.635      2.02922e+6 
        950.719      2.08742e+6 
        950.804      2.14454e+6 
        950.888      2.20043e+6 
        951.056      2.30965e+6 
        951.392      2.52107e+6 
        951.728      2.72429e+6 
        951.896      2.82806e+6 
        952.065      2.93145e+6 
        952.233      3.04371e+6 
        952.401      3.16836e+6 
        952.569      3.29098e+6 
        952.688      3.37643e+6 
        952.737      3.41186e+6 
        952.788      3.44865e+6 
        952.888      3.52034e+6 
        953.089      3.66193e+6 
        953.489      3.95549e+6 
        953.889      4.26418e+6 
         954.29      4.55949e+6 
         954.69      4.85081e+6 
        954.967      5.04552e+6 
         955.09      5.12786e+6 
        955.228      5.21976e+6 
        955.491      5.39016e+6 
        955.752      5.55537e+6 
        956.014      5.69941e+6 
        956.275      5.84097e+6 
        956.537      5.97767e+6 
        957.061      6.23666e+6 
        957.584      6.47467e+6 
        958.108      6.68735e+6 
        958.631      6.87459e+6 
        959.021      6.99441e+6 
        959.155      7.03139e+6 
        959.289      7.06616e+6 
        959.557      7.12962e+6 
        959.757      7.17065e+6 
        959.825      7.18369e+6 
        960.093      7.22874e+6 
         960.43      7.26965e+6 
        960.766      7.30976e+6 
        961.102      7.32861e+6 
        961.439      7.32629e+6 
        961.775      7.30087e+6 
        962.111      7.25381e+6 
        962.447      7.18335e+6 
        962.784      7.09343e+6 
         963.12      6.98106e+6 
        963.456      6.85141e+6 
        963.793      6.70476e+6 
        964.027      6.59508e+6 
        964.129       6.5446e+6 
        964.231      6.49248e+6 
        964.435      6.38749e+6 
        964.843      6.16635e+6 
        964.921      6.12208e+6 
        965.252      5.93312e+6 
         965.66      5.69109e+6 
        966.477      5.20153e+6 
        966.767      5.02724e+6 
          967.4      4.64748e+6 
        968.032      4.26666e+6 
        968.348      4.07163e+6 
        968.665      3.87421e+6 
        968.668       3.8723e+6 
        968.981      3.67064e+6 
        968.983      3.66966e+6 
        969.297       3.4605e+6 
        969.611      3.24049e+6 
        969.876      3.04566e+6 
        969.927      3.00729e+6 
        969.977      2.96837e+6 
        970.077      2.88825e+6 
        970.277      2.72087e+6 
        970.477      2.54161e+6 
         970.48      2.53882e+6 
        970.677      2.34708e+6 
        970.874      2.13504e+6 
        971.071      1.89875e+6 
         971.19      1.73857e+6 
        971.269      1.61967e+6 
        971.348      1.48604e+6 
        971.427       1.3352e+6 
        971.467      1.25006e+6 
        971.506       1.1612e+6 
        971.585          960840 
        971.644          795583 
        971.703          621979 
        971.732          541334 
        971.762          470435 
        971.778          442801 
        971.792          428089 
        971.806          422752 
        971.821          422472 
        971.827          422500 
        971.833          422529 
        971.836          422544 
        971.839          422560 
        971.851          422616 
        971.866          422717 
         971.88          425092 
         971.91          459794 
        971.969          606623 
        972.037          807594 
        972.087          949122 
        972.137      1.08174e+6 
         972.15       1.1146e+6 
        972.237      1.31511e+6 
        972.324      1.48688e+6 
        972.499      1.76755e+6 
        972.548      1.83601e+6 
        972.673      1.99522e+6 
        972.798      2.14016e+6 
        972.923      2.27202e+6 
        973.048      2.39436e+6 
        973.173      2.50756e+6 
        973.298      2.61341e+6 
        973.423      2.71472e+6 
        973.548      2.81096e+6 
        973.601      2.85056e+6 
        973.673      2.90331e+6 
        973.746      2.95499e+6 
         973.89      3.05586e+6 
        974.034      3.15215e+6 
        974.178      3.24448e+6 
        974.466      3.42534e+6 
        974.754      3.60045e+6 
        975.043      3.76768e+6 
        975.331       3.9361e+6 
        975.556      4.05416e+6 
        975.598      4.07628e+6 
        975.619      4.08737e+6 
         975.64      4.09849e+6 
        975.724      4.14294e+6 
        975.892      4.23295e+6 
        976.228      4.40803e+6 
        976.565      4.58858e+6 
        976.901      4.78392e+6 
        977.237      5.00094e+6 
        977.574      5.20782e+6 
         977.91      5.42927e+6 
        978.246       5.6489e+6 
        978.414      5.76467e+6 
        978.582      5.88769e+6 
         978.75       6.0208e+6 
        978.919      6.16522e+6 
        979.087      6.32224e+6 
        979.105      6.33995e+6 
        979.205      6.44221e+6 
        979.255      6.49587e+6 
        979.305      6.55094e+6 
        979.505      6.74817e+6 
        979.705      6.96871e+6 
        979.905      7.21646e+6 
        980.105      7.43568e+6 
        980.306      7.63982e+6 
        980.506      7.86096e+6 
        980.706      8.08206e+6 
        980.906      8.26588e+6 
        981.106      8.45886e+6 
        981.506      8.84968e+6 
        982.307      9.62911e+6 
        982.707      1.00198e+7 
        983.108      1.04192e+7 
        983.508      1.08387e+7 
        983.863      1.12427e+7 
