# Koester WD models
# teff = 16750 K (value for the effective temperature for the model. Temperatures are given in K)
# logg = 8.75 log(cm/s2) (value for Log(G) for the model.)
#
# column 1: WAVELENGTH (ANGSTROM), Wavelength in Angstrom
# column 2: FLUX (ERG/CM2/S/A), Flux in erg/cm2/s/A
         899.23       1.1102e+6 
        904.235      1.16962e+6 
         908.45      1.22147e+6 
        909.241      1.23138e+6 
        910.032      1.24134e+6 
        911.193      1.25606e+6 
        911.613      1.26137e+6 
        911.824        1.264e+6 
        911.929      1.26531e+6 
        912.034      1.26661e+6 
        912.139      1.28711e+6 
        912.244      1.30757e+6 
        912.349        1.328e+6 
        912.454      1.34836e+6 
        912.559      1.36861e+6 
        912.664      1.38866e+6 
         912.77      1.40837e+6 
        912.875      1.42735e+6 
        912.886      1.42927e+6 
        913.085      1.45949e+6 
        913.284      1.48116e+6 
        913.339      1.48449e+6 
        913.435      1.48969e+6 
        913.483      1.49378e+6 
        913.531      1.49728e+6 
        913.625      1.49889e+6 
        913.724      1.49609e+6 
        913.822      1.49764e+6 
        913.871      1.49951e+6 
        914.018      1.48857e+6 
        914.165      1.45795e+6 
        914.312      1.49117e+6 
        914.343       1.4926e+6 
        914.459      1.43105e+6 
        914.575       1.3668e+6 
        914.692      1.44356e+6 
        914.808      1.50153e+6 
        914.924      1.39878e+6 
        915.009      1.27201e+6 
         915.04      1.24208e+6 
        915.071      1.23284e+6 
        915.133       1.2792e+6 
        915.257      1.48291e+6 
        915.381      1.55429e+6 
        915.505      1.37129e+6 
        915.609      1.15183e+6 
        915.617      1.14044e+6 
         915.63       1.1204e+6 
        915.643      1.10595e+6 
        915.677      1.08996e+6 
        915.745        1.161e+6 
        915.881      1.50308e+6 
        916.017      1.70712e+6 
        916.153      1.60921e+6 
        916.289      1.25615e+6 
        916.379      1.01797e+6 
        916.421          976765 
        916.425          976011 
        916.429          975816 
        916.479      1.02101e+6 
         916.58      1.30596e+6 
         916.68      1.63292e+6 
         916.78      1.87649e+6 
         916.88      1.98636e+6 
         916.98      1.93334e+6 
         917.08      1.73521e+6 
         917.18      1.41904e+6 
        917.182      1.41185e+6 
         917.28       1.0561e+6 
        917.378          884085 
        917.575      1.43397e+6 
        917.771      2.09571e+6 
        917.967      2.39105e+6 
        918.163      2.19241e+6 
        918.359      1.57566e+6 
         918.51          982935 
        918.556          861751 
        918.602          824030 
        918.694          985376 
        918.878      1.73577e+6 
        919.062      2.40906e+6 
        919.201      2.76606e+6 
        919.241      2.83658e+6 
        919.246      2.84431e+6 
        919.251       2.8518e+6 
        919.301      2.91112e+6 
        919.402      2.95683e+6 
        919.502      2.91799e+6 
        919.602       2.7785e+6 
        919.702      2.54907e+6 
        919.802      2.24343e+6 
        919.902      1.88097e+6 
        920.002      1.47613e+6 
        920.102      1.02837e+6 
        920.165          832544 
        920.189          802193 
        920.202          794424 
        920.215          792121 
        920.265          833521 
        920.366      1.20577e+6 
        920.466      1.64026e+6 
        920.566      2.04752e+6 
        920.666      2.43973e+6 
        920.766      2.78391e+6 
        920.866      3.09183e+6 
        920.966      3.33304e+6 
        921.066       3.5134e+6 
        921.166      3.63423e+6 
        921.266      3.69071e+6 
        921.367      3.69118e+6 
        921.467      3.62967e+6 
        921.567       3.5008e+6 
        921.667      3.31158e+6 
        921.767      3.06056e+6 
        921.867      2.75556e+6 
        921.967      2.41555e+6 
        922.067      2.02657e+6 
        922.167      1.60184e+6 
        922.267      1.14439e+6 
        922.331          872750 
        922.368          801873 
        922.405          786020 
        922.479          874246 
        922.627      1.54646e+6 
         922.67      1.73677e+6 
         922.74      2.03816e+6 
        922.775      2.18016e+6 
         922.81      2.32672e+6 
         922.95      2.85439e+6 
         923.09      3.34269e+6 
         923.23      3.76357e+6 
        923.371      4.11897e+6 
        923.511      4.38821e+6 
        923.651      4.57714e+6 
        923.791      4.68829e+6 
        923.931      4.73821e+6 
        924.071      4.72486e+6 
        924.211      4.63671e+6 
        924.352      4.46995e+6 
        924.492      4.21313e+6 
        924.632      3.87239e+6 
        924.772      3.47278e+6 
        924.912      3.00416e+6 
        925.052      2.49274e+6 
        925.192      1.90416e+6 
        925.333       1.2257e+6 
        925.434          822968 
        925.462          804257 
        925.473          802451 
        925.484          801979 
        925.534          823920 
        925.634      1.22472e+6 
        925.734      1.72301e+6 
        925.834       2.1769e+6 
        925.934      2.59444e+6 
        926.034      2.97653e+6 
        926.134      3.34705e+6 
        926.232      3.68358e+6 
        926.234      3.69011e+6 
        926.301        3.906e+6 
        926.335      4.01687e+6 
        926.369      4.12365e+6 
        926.505      4.53483e+6 
        926.641      4.88954e+6 
        926.777      5.19224e+6 
        926.913      5.44677e+6 
        927.049      5.64962e+6 
        927.185      5.81512e+6 
        927.322      5.94622e+6 
        927.458      6.04669e+6 
        927.594      6.11137e+6 
         927.73      6.14973e+6 
        927.866      6.15843e+6 
        928.002      6.13691e+6 
        928.006      6.13578e+6 
        928.094      6.09356e+6 
        928.138      6.06418e+6 
        928.182      6.02966e+6 
        928.359      5.84107e+6 
        928.535      5.56712e+6 
        928.711      5.21806e+6 
        928.887      4.82897e+6 
        928.985      4.58899e+6 
        929.037      4.45167e+6 
        929.063      4.38007e+6 
        929.089       4.3069e+6 
        929.125      4.20207e+6 
        929.193      3.99281e+6 
        929.261      3.77566e+6 
        929.398       3.3081e+6 
        929.493      2.95557e+6 
        929.525      2.83253e+6 
        929.534      2.79711e+6 
        929.543      2.76149e+6 
        929.593      2.55979e+6 
        929.617      2.45928e+6 
        929.655      2.29375e+6 
        929.693      2.12294e+6 
        929.769      1.75826e+6 
        929.827      1.45596e+6 
        929.883      1.15098e+6 
         929.91      1.00771e+6 
        929.939          889514 
        929.954          859402 
        929.968          846065 
        929.982          842032 
        929.996          840945 
         930.01          840854 
        930.024          841215 
        930.038          842572 
        930.052          846879 
        930.081          890953 
        930.137      1.15423e+6 
        930.201      1.50436e+6 
        930.247      1.74651e+6 
        930.249      1.75692e+6 
        930.251      1.76733e+6 
        930.301      2.01581e+6 
        930.326      2.12795e+6 
        930.402      2.47118e+6 
        930.478      2.78929e+6 
         930.63      3.38076e+6 
        930.633       3.3922e+6 
        930.782      3.92225e+6 
        930.931      4.41541e+6 
         931.08      4.85784e+6 
        931.229      5.26038e+6 
        931.379      5.67007e+6 
        931.516      6.02689e+6 
        931.528      6.05746e+6 
        931.677       6.4119e+6 
        931.838      6.75725e+6 
        931.999      7.06337e+6 
         932.16      7.30169e+6 
        932.321      7.51428e+6 
        932.483      7.69885e+6 
        932.644      7.86253e+6 
        932.805      7.99551e+6 
        932.966      8.10107e+6 
        933.127      8.18712e+6 
        933.173       8.2081e+6 
        933.265      8.24511e+6 
        933.288      8.25331e+6 
        933.403      8.28771e+6 
        933.432      8.29409e+6 
        933.542      8.31212e+6 
        933.652        8.319e+6 
        933.762      8.31419e+6 
        933.872       8.2971e+6 
        933.982      8.26217e+6 
        934.092      8.20641e+6 
        934.202      8.13396e+6 
        934.312      8.04436e+6 
        934.413      7.95024e+6 
        934.422      7.94169e+6 
        934.533      7.82715e+6 
        934.652      7.68292e+6 
        934.771      7.51723e+6 
         934.89      7.33185e+6 
        935.009      7.12362e+6 
        935.026      7.09208e+6 
        935.128      6.90852e+6 
         935.23      6.73655e+6 
        935.332      6.55295e+6 
        935.434      6.35877e+6 
        935.537      6.15303e+6 
        935.639      5.93359e+6 
        935.741      5.70259e+6 
        935.843       5.4544e+6 
        935.945      5.18598e+6 
         935.95      5.17235e+6 
        936.047      4.89715e+6 
        936.144        4.603e+6 
        936.338      3.97113e+6 
        936.464       3.5178e+6 
        936.532      3.25463e+6 
        936.601        2.976e+6 
        936.645      2.78835e+6 
        936.714      2.47807e+6 
        936.737      2.37088e+6 
        936.829      1.91229e+6 
        936.887      1.58531e+6 
        936.944      1.24373e+6 
        936.973      1.06824e+6 
        937.001          943819 
        937.015          919664 
        937.029          911401 
        937.043          910210 
        937.058          910185 
        937.072          910311 
        937.086          910471 
        937.101          910804 
        937.115          912284 
        937.143          945324 
         937.15          967095 
        937.186      1.16042e+6 
        937.199      1.24123e+6 
         937.25       1.5511e+6 
        937.314      1.91656e+6 
        937.341      2.06176e+6 
        937.442      2.55274e+6 
        937.543      3.00412e+6 
        937.645      3.42226e+6 
        937.746      3.81166e+6 
        937.847      4.17241e+6 
        937.896      4.34281e+6 
        937.948      4.51943e+6 
            938      4.68946e+6 
        938.104      5.02218e+6 
        938.208      5.33508e+6 
        938.312      5.62977e+6 
        938.416      5.90553e+6 
         938.52      6.16695e+6 
        938.543      6.22375e+6 
        938.624      6.42066e+6 
        938.729      6.66379e+6 
        938.914      7.08033e+6 
        938.927      7.10895e+6 
        939.099      7.49832e+6 
        939.271      7.91914e+6 
        939.443      8.31595e+6 
        939.615      8.69332e+6 
        939.788       9.0519e+6 
         939.96      9.41975e+6 
        940.132      9.77136e+6 
        940.304      1.00918e+7 
        940.476      1.03844e+7 
        940.556      1.05158e+7 
        940.648      1.06635e+7 
         940.74      1.08061e+7 
        940.925      1.10651e+7 
        941.109      1.13066e+7 
        941.293      1.15303e+7 
        941.477      1.17184e+7 
        941.661      1.18854e+7 
        941.845      1.20389e+7 
         942.03      1.21784e+7 
        942.214      1.23047e+7 
        942.398      1.24101e+7 
        942.582       1.2497e+7 
        942.766      1.25661e+7 
        942.853      1.25922e+7 
         942.95      1.26163e+7 
        943.048      1.26347e+7 
        943.242      1.26568e+7 
        943.436      1.26455e+7 
         943.63       1.2605e+7 
        943.824      1.25339e+7 
        944.018      1.24313e+7 
        944.213      1.22846e+7 
        944.407      1.20991e+7 
        944.601      1.18768e+7 
        944.795      1.16258e+7 
        944.989      1.13675e+7 
        945.059      1.12673e+7 
        945.183      1.10801e+7 
        945.308      1.08809e+7 
        945.556      1.04641e+7 
        945.804      1.00038e+7 
        945.939      9.75219e+6 
        946.052      9.55245e+6 
        946.244      9.20487e+6 
        946.549      8.65732e+6 
        946.854      8.08872e+6 
        947.108      7.58679e+6 
        947.158      7.48532e+6 
        947.208      7.38186e+6 
        947.308      7.16899e+6 
        947.509      6.72009e+6 
        947.709       6.2262e+6 
        947.735      6.15809e+6 
        947.909      5.66866e+6 
        948.083      5.11844e+6 
        948.257      4.51114e+6 
        948.317      4.28878e+6 
        948.431      3.83384e+6 
        948.546      3.33797e+6 
         948.66      2.79275e+6 
        948.727      2.44718e+6 
        948.761      2.26112e+6 
        948.771      2.20293e+6 
        948.774      2.18532e+6 
        948.777      2.16772e+6 
        948.827      1.85667e+6 
        948.835      1.80624e+6 
        948.893      1.41293e+6 
        948.922      1.20461e+6 
        948.951       1.0589e+6 
        948.966      1.04117e+6 
         948.98      1.03861e+6 
        948.994      1.03865e+6 
        949.009      1.03881e+6 
        949.023      1.03897e+6 
        949.037      1.03913e+6 
        949.052       1.0393e+6 
        949.066      1.03958e+6 
        949.095      1.06056e+6 
        949.153      1.41681e+6 
         949.23      1.93418e+6 
        949.258      2.11271e+6 
        949.269       2.1785e+6 
         949.28      2.24374e+6 
         949.33      2.52065e+6 
         949.36      2.67904e+6 
         949.43      3.03418e+6 
          949.5      3.36876e+6 
         949.64      3.98728e+6 
        949.781      4.54582e+6 
        949.795      4.59838e+6 
        949.879      4.91043e+6 
        949.921      5.06123e+6 
        949.963      5.20763e+6 
        950.131      5.76592e+6 
        950.299      6.26946e+6 
        950.467      6.72606e+6 
        950.635      7.14932e+6 
        950.719      7.35155e+6 
        950.804      7.54931e+6 
        950.888      7.74246e+6 
        951.056        8.118e+6 
        951.392      8.84883e+6 
        951.728      9.56291e+6 
        951.896      9.94063e+6 
        952.065        1.032e+7 
        952.233      1.07195e+7 
        952.401      1.11453e+7 
        952.688      1.18603e+7 
        952.737      1.19851e+7 
        952.788      1.21148e+7 
        952.888      1.23691e+7 
        953.089      1.28781e+7 
        953.489       1.3946e+7 
        953.889      1.50688e+7 
         954.29      1.61604e+7 
         954.49      1.66975e+7 
         954.69      1.72298e+7 
         954.89      1.77391e+7 
        954.967      1.79185e+7 
         955.09      1.82016e+7 
        955.229      1.85151e+7 
        955.491      1.90905e+7 
        955.752      1.96461e+7 
        956.014      2.01437e+7 
        956.537      2.12123e+7 
        957.061      2.22105e+7 
        957.584      2.31225e+7 
        957.974      2.37422e+7 
        958.108      2.39431e+7 
        958.302      2.42244e+7 
        958.631      2.46689e+7 
         958.96      2.50685e+7 
        959.289      2.54191e+7 
        959.463      2.55712e+7 
        959.618      2.56948e+7 
        959.946      2.59235e+7 
         960.43      2.61668e+7 
        960.671       2.6273e+7 
        960.913      2.63456e+7 
        961.154       2.6383e+7 
        961.397      2.63857e+7 
        961.638        2.635e+7 
         961.88       2.6277e+7 
        962.121      2.61673e+7 
        962.363      2.60165e+7 
        962.605      2.58294e+7 
        962.847      2.56025e+7 
        963.088      2.53333e+7 
         963.33      2.50285e+7 
        963.396      2.49393e+7 
        963.571      2.46872e+7 
        963.814      2.43142e+7 
        964.231      2.35946e+7 
        964.648      2.27978e+7 
        965.066      2.19218e+7 
        965.483       2.0991e+7 
          965.9      2.00113e+7 
        966.273      1.91204e+7 
        966.318      1.90119e+7 
        967.152      1.70007e+7 
        968.032      1.49202e+7 
        968.526      1.37542e+7 
        968.668       1.3423e+7 
        968.912      1.28471e+7 
        968.983      1.26803e+7 
        969.297      1.19265e+7 
        969.611      1.11477e+7 
        969.876      1.04638e+7 
        969.927      1.03309e+7 
        969.977      1.01969e+7 
        970.077      9.92275e+6 
        970.277      9.35312e+6 
        970.477       8.7433e+6 
         970.48      8.73378e+6 
        970.677      8.07314e+6 
        970.874      7.32224e+6 
        971.071      6.45836e+6 
         971.19      5.86444e+6 
        971.269      5.42641e+6 
        971.348      4.95058e+6 
        971.427      4.43367e+6 
        971.467      4.15303e+6 
        971.506      3.86856e+6 
        971.585      3.24897e+6 
        971.644       2.7467e+6 
        971.703      2.21331e+6 
        971.732      1.94245e+6 
        971.762       1.6624e+6 
        971.778      1.52333e+6 
        971.792      1.41784e+6 
        971.806      1.34423e+6 
        971.821      1.32239e+6 
        971.827      1.32238e+6 
        971.833      1.32246e+6 
        971.836       1.3225e+6 
        971.839      1.32254e+6 
        971.851      1.32271e+6 
        971.866      1.32945e+6 
         971.88      1.38173e+6 
         971.91      1.61094e+6 
        971.969      2.16287e+6 
        972.037      2.78329e+6 
        972.087      3.21354e+6 
        972.137      3.61965e+6 
         972.15      3.72166e+6 
        972.237      4.36383e+6 
        972.324       4.9443e+6 
        972.499      5.95351e+6 
        972.548        6.206e+6 
        972.673      6.79203e+6 
        972.798      7.31583e+6 
        972.923      7.78465e+6 
        973.048      8.21096e+6 
        973.173       8.6003e+6 
        973.298      8.95995e+6 
        973.423      9.30248e+6 
        973.548      9.62587e+6 
        973.601       9.7586e+6 
        973.673      9.93566e+6 
        973.746      1.01099e+7 
         973.89      1.04508e+7 
        974.178      1.10932e+7 
        974.466      1.17175e+7 
        974.754      1.23234e+7 
        975.043      1.29066e+7 
        975.556      1.39167e+7 
        975.598      1.39954e+7 
        975.619      1.40349e+7 
         975.64      1.40744e+7 
        975.724      1.42338e+7 
        975.892      1.45581e+7 
        976.228      1.51926e+7 
        976.565      1.58575e+7 
        976.733      1.62106e+7 
        976.901       1.6583e+7 
        977.069      1.69781e+7 
        977.237      1.74014e+7 
        977.405      1.78003e+7 
        977.574      1.81926e+7 
         977.91      1.90518e+7 
        978.246      1.99077e+7 
        978.414      2.03626e+7 
        978.582      2.08484e+7 
         978.75      2.13779e+7 
        978.919      2.19551e+7 
        979.087      2.25871e+7 
        979.105      2.26586e+7 
        979.205      2.30712e+7 
        979.255      2.32869e+7 
        979.305      2.35092e+7 
        979.505      2.43057e+7 
        979.705      2.51947e+7 
        979.905      2.61983e+7 
        980.105      2.70848e+7 
        980.306      2.79072e+7 
        980.506       2.8794e+7 
        980.706       2.9685e+7 
        980.906      3.04232e+7 
        981.106      3.11901e+7 
        981.506      3.27527e+7 
        982.307      3.58776e+7 
        982.707      3.74318e+7 
        983.108      3.90264e+7 
        983.508      4.07141e+7 
        983.863      4.23232e+7 
        983.893      4.24633e+7 
        983.908      4.25337e+7 
        983.923      4.26041e+7 
        983.983      4.28856e+7 
        984.103      4.34212e+7 
        984.344      4.44554e+7 
        984.824      4.65609e+7 
        984.951      4.70824e+7 
        985.785      5.06214e+7 
        986.202       5.2447e+7 
         986.41      5.33386e+7 
        986.618      5.42393e+7 
        986.722      5.46948e+7 
