# Koester WD models
# teff = 16500 K (value for the effective temperature for the model. Temperatures are given in K)
# logg = 9.5 log(cm/s2) (value for Log(G) for the model.)
#
# column 1: WAVELENGTH (ANGSTROM), Wavelength in Angstrom
# column 2: FLUX (ERG/CM2/S/A), Flux in erg/cm2/s/A
         899.23      1.08701e+6 
        904.235      1.14542e+6 
         908.45      1.19639e+6 
        909.241      1.20613e+6 
        910.032      1.21592e+6 
        911.193      1.23034e+6 
        911.613      1.23554e+6 
        911.824      1.23813e+6 
        911.929      1.23942e+6 
        912.034       1.2407e+6 
        912.139      1.25032e+6 
        912.244      1.25991e+6 
        912.349      1.26946e+6 
        912.454      1.27896e+6 
        912.559      1.28839e+6 
        912.664      1.29772e+6 
         912.77      1.30693e+6 
        912.875      1.31595e+6 
        912.886      1.31688e+6 
        913.037      1.32932e+6 
        913.085      1.33315e+6 
        913.241      1.34508e+6 
        913.284      1.34817e+6 
        913.531      1.36437e+6 
        913.677      1.37175e+6 
        913.822      1.37887e+6 
        913.967      1.38144e+6 
        914.059      1.38352e+6 
        914.112      1.38538e+6 
        914.165      1.38638e+6 
        914.271      1.38564e+6 
        914.377        1.381e+6 
        914.391      1.37992e+6 
        914.448      1.37802e+6 
        914.483      1.37691e+6 
        914.575      1.37599e+6 
        914.603      1.37651e+6 
         914.76      1.37557e+6 
        914.915      1.35046e+6 
        915.071       1.3294e+6 
        915.122      1.33381e+6 
        915.226      1.35383e+6 
        915.252      1.35876e+6 
        915.382      1.35829e+6 
        915.512       1.2969e+6 
        915.609      1.24773e+6 
        915.643       1.2381e+6 
        915.677      1.23841e+6 
        915.745      1.26244e+6 
        915.881      1.36324e+6 
        916.017       1.4275e+6 
        916.153       1.3821e+6 
        916.289      1.24376e+6 
        916.379      1.16638e+6 
        916.421      1.15432e+6 
        916.425      1.15431e+6 
        916.429       1.1545e+6 
        916.479      1.17457e+6 
         916.58      1.28553e+6 
         916.68      1.43008e+6 
         916.78      1.54459e+6 
         916.88      1.59643e+6 
         916.98      1.55798e+6 
         917.08      1.44079e+6 
         917.18      1.27027e+6 
        917.182      1.26699e+6 
         917.28      1.10328e+6 
        917.378      1.03228e+6 
        917.575      1.29588e+6 
        917.771      1.68677e+6 
        917.967      1.86723e+6 
        918.163      1.71826e+6 
        918.359      1.31042e+6 
         918.51      1.00246e+6 
        918.556          948877 
        918.602          929933 
        918.694      1.00581e+6 
        918.878      1.42646e+6 
        919.062       1.8864e+6 
        919.201       2.1404e+6 
        919.241      2.19052e+6 
        919.246      2.19589e+6 
        919.251      2.20109e+6 
        919.301      2.24273e+6 
        919.402      2.27182e+6 
        919.502      2.24028e+6 
        919.602       2.1331e+6 
        919.702      1.95206e+6 
        919.802      1.73581e+6 
        919.902        1.476e+6 
        920.002       1.2131e+6 
        920.102          980632 
        920.165          889671 
        920.189          872753 
        920.202          868578 
        920.215          867146 
        920.265          890748 
        920.366      1.06454e+6 
        920.466      1.32035e+6 
        920.566      1.60079e+6 
        920.666      1.88699e+6 
        920.766      2.14921e+6 
        920.866      2.39344e+6 
        920.966      2.58393e+6 
        921.066      2.72993e+6 
        921.166      2.82744e+6 
        921.266      2.87113e+6 
        921.367      2.86932e+6 
        921.467      2.81797e+6 
        921.567      2.70863e+6 
        921.667      2.55124e+6 
        921.767      2.35143e+6 
        921.867        2.103e+6 
        921.967      1.84299e+6 
        922.067      1.55784e+6 
        922.167       1.2672e+6 
        922.267      1.00746e+6 
        922.331          886036 
        922.368          851315 
        922.405          841538 
        922.479          887563 
        922.627      1.23373e+6 
         922.74      1.56831e+6 
        922.775      1.67258e+6 
         922.81       1.7806e+6 
         922.88      1.98173e+6 
         923.02      2.39267e+6 
         923.16      2.76079e+6 
        923.301      3.08964e+6 
        923.441      3.34806e+6 
        923.581      3.54193e+6 
        923.721      3.67076e+6 
        923.861      3.73953e+6 
        924.001      3.75266e+6 
        924.141      3.70538e+6 
        924.282      3.59163e+6 
        924.422      3.40841e+6 
        924.562      3.16123e+6 
        924.702      2.84486e+6 
        924.842       2.4938e+6 
        924.982      2.08886e+6 
        925.122      1.67432e+6 
        925.262      1.24451e+6 
        925.322      1.07153e+6 
        925.403          894584 
        925.484          847332 
        925.646      1.07549e+6 
        925.808      1.57191e+6 
         925.97      2.07423e+6 
        926.132      2.56932e+6 
         926.22      2.82029e+6 
        926.295      3.02254e+6 
        926.369      3.22629e+6 
        926.517      3.59229e+6 
        926.665      3.91829e+6 
        926.813      4.20109e+6 
        926.961      4.43706e+6 
        927.109      4.62662e+6 
        927.257      4.77557e+6 
        927.406       4.8869e+6 
        927.554      4.96155e+6 
        927.702      5.00368e+6 
         927.85      5.01301e+6 
        927.998      4.98778e+6 
        928.038      4.97368e+6 
         928.11      4.93588e+6 
        928.146      4.91282e+6 
        928.182      4.88681e+6 
        928.327      4.75241e+6 
        928.471      4.57862e+6 
        928.615        4.354e+6 
        928.759      4.08017e+6 
        928.903      3.79401e+6 
        929.005      3.57353e+6 
        929.047      3.47737e+6 
        929.085      3.38689e+6 
        929.089      3.37712e+6 
        929.173      3.16066e+6 
        929.261      2.92451e+6 
        929.333      2.72649e+6 
        929.438      2.41808e+6 
        929.543      2.09489e+6 
        929.648      1.76053e+6 
        929.705      1.57392e+6 
        929.737      1.47191e+6 
        929.753         1.42e+6 
        929.769      1.36706e+6 
        929.783      1.32104e+6 
        929.827      1.17692e+6 
        929.833      1.15776e+6 
        929.883      1.01293e+6 
         929.91          950435 
        929.939          905357 
        929.954          893595 
        929.968          887179 
        929.982          884588 
        929.996          883639 
         930.01          883454 
        930.024          883922 
        930.038          885153 
        930.052          888031 
        930.081          906821 
        930.137      1.01583e+6 
        930.201      1.20801e+6 
        930.247      1.36083e+6 
        930.249      1.36757e+6 
        930.251      1.37433e+6 
        930.301      1.53929e+6 
        930.326      1.61694e+6 
        930.402      1.87031e+6 
        930.478      2.11687e+6 
         930.63      2.59731e+6 
        930.633      2.60656e+6 
        930.782      3.04513e+6 
        930.931      3.46643e+6 
         931.08      3.84336e+6 
        931.229      4.20446e+6 
        931.379      4.56593e+6 
        931.516      4.87478e+6 
        931.528      4.90066e+6 
        931.677      5.20285e+6 
        931.838      5.50784e+6 
        931.999      5.77833e+6 
         932.16       6.0005e+6 
        932.321      6.19726e+6 
        932.483      6.36867e+6 
        932.644      6.51758e+6 
        932.805       6.6368e+6 
        932.966      6.72989e+6 
        933.127      6.80585e+6 
        933.173      6.82439e+6 
        933.265      6.85715e+6 
        933.288      6.86444e+6 
        933.403      6.89504e+6 
        933.432      6.90041e+6 
        933.542      6.91509e+6 
        933.652      6.91939e+6 
        933.762      6.91229e+6 
        933.872      6.89369e+6 
        933.982      6.86092e+6 
        934.092      6.81232e+6 
        934.202      6.74911e+6 
        934.312       6.6708e+6 
        934.413       6.5888e+6 
        934.422      6.58148e+6 
        934.533      6.48396e+6 
        934.652      6.36081e+6 
        934.771      6.22013e+6 
         934.89      6.06626e+6 
        935.009      5.89225e+6 
        935.026      5.86573e+6 
        935.128      5.70563e+6 
         935.23      5.54554e+6 
        935.332      5.37451e+6 
        935.434      5.19692e+6 
        935.537       5.0104e+6 
        935.639      4.81103e+6 
        935.741      4.60221e+6 
        935.843      4.38035e+6 
        935.945      4.14128e+6 
         935.95      4.12918e+6 
        936.047      3.89042e+6 
        936.144      3.63859e+6 
        936.338      3.09311e+6 
        936.464      2.71161e+6 
        936.532      2.49342e+6 
        936.601      2.26795e+6 
        936.645      2.11954e+6 
        936.714      1.88199e+6 
        936.737      1.80227e+6 
        936.829      1.48565e+6 
        936.887        1.275e+6 
        936.944      1.08645e+6 
        936.973      1.01168e+6 
        937.001          967124 
        937.015          958880 
        937.029          955484 
        937.043          954812 
        937.058          954702 
        937.072          954809 
        937.086          955000 
        937.101          955434 
        937.115          956404 
        937.143          968663 
         937.15          977104 
        937.186      1.05065e+6 
        937.199      1.08664e+6 
         937.25      1.25493e+6 
        937.314      1.48983e+6 
        937.341      1.58472e+6 
        937.442      1.93842e+6 
        937.543      2.29011e+6 
        937.645      2.63136e+6 
        937.746      2.95456e+6 
        937.847      3.26276e+6 
        937.896      3.40882e+6 
        937.948      3.56153e+6 
            938      3.71075e+6 
        938.104      3.99598e+6 
        938.208      4.26883e+6 
        938.312      4.53128e+6 
        938.416      4.77808e+6 
         938.52      5.01492e+6 
        938.543      5.06654e+6 
        938.556      5.09573e+6 
        938.624      5.24479e+6 
        938.729      5.46533e+6 
        938.914      5.84961e+6 
        939.093      6.21087e+6 
        939.271      6.57573e+6 
        939.449      6.91823e+6 
        939.628      7.24699e+6 
        939.807      7.56376e+6 
        939.986      7.88241e+6 
        940.164      8.18064e+6 
        940.343      8.45192e+6 
        940.521      8.70325e+6 
         940.58      8.78188e+6 
         940.66      8.88634e+6 
          940.7      8.93733e+6 
         940.74      8.98706e+6 
        940.901      9.16255e+6 
        941.061      9.32575e+6 
        941.221       9.4774e+6 
        941.381       9.6156e+6 
        941.541      9.73501e+6 
        941.701      9.84629e+6 
        942.022      1.00457e+7 
        942.342      1.02116e+7 
        942.662      1.03376e+7 
        942.917      1.04104e+7 
        942.982       1.0425e+7 
        943.048      1.04378e+7 
        943.178      1.04583e+7 
        943.438      1.04627e+7 
        943.698      1.04261e+7 
        943.828       1.0392e+7 
        943.958      1.03467e+7 
        944.088      1.02885e+7 
        944.219      1.02156e+7 
        944.349      1.01298e+7 
        944.479      1.00309e+7 
        944.609      9.91854e+6 
        944.691      9.84063e+6 
        944.739      9.79244e+6 
        944.845      9.68911e+6 
        944.999      9.52682e+6 
        945.153      9.34819e+6 
        945.308      9.15388e+6 
        945.462       8.9548e+6 
        945.616      8.74469e+6 
         945.77      8.51915e+6 
        945.924      8.28275e+6 
        946.232       7.7991e+6 
        946.541      7.30178e+6 
        946.695      7.04515e+6 
        946.849       6.7816e+6 
        947.004       6.5053e+6 
        947.158      6.21586e+6 
        947.312      5.91267e+6 
        947.468        5.592e+6 
        947.471      5.58556e+6 
        947.622      5.25042e+6 
        947.624      5.24699e+6 
        947.777      4.88725e+6 
         947.93      4.49285e+6 
        948.083      4.06855e+6 
        948.233      3.61487e+6 
        948.236      3.60567e+6 
        948.389      3.11171e+6 
        948.546      2.56136e+6 
        948.627      2.25944e+6 
        948.661      2.13128e+6 
        948.702      1.97576e+6 
        948.777      1.69159e+6 
        948.835      1.45521e+6 
        948.893      1.23262e+6 
        948.922       1.1442e+6 
        948.951       1.0947e+6 
        948.966       1.0894e+6 
         948.98       1.0886e+6 
        948.994       1.0887e+6 
        949.009      1.08887e+6 
        949.023      1.08903e+6 
        949.037       1.0892e+6 
        949.052      1.08938e+6 
        949.066      1.08962e+6 
        949.095      1.09641e+6 
        949.153      1.23606e+6 
         949.23      1.53983e+6 
        949.258       1.6575e+6 
        949.269      1.70023e+6 
         949.28       1.7428e+6 
         949.33      1.93446e+6 
         949.36      2.05058e+6 
         949.43      2.31972e+6 
          949.5      2.58567e+6 
         949.64      3.09424e+6 
        949.781      3.56706e+6 
        949.795      3.61223e+6 
        949.879      3.88103e+6 
        949.921      4.01207e+6 
        949.963      4.14134e+6 
        950.131      4.62772e+6 
        950.299      5.07923e+6 
        950.467      5.49427e+6 
        950.635      5.88744e+6 
        950.719      6.07571e+6 
        950.804      6.25931e+6 
        950.888      6.43942e+6 
        951.056      6.78983e+6 
        951.224       7.1279e+6 
        951.392      7.45745e+6 
        951.728      8.10606e+6 
        952.065      8.78191e+6 
        952.401      9.46534e+6 
        952.738      1.01404e+7 
        953.413      1.15452e+7 
         953.75      1.22637e+7 
        954.087      1.29592e+7 
        954.425      1.36105e+7 
        954.593      1.39273e+7 
        954.762      1.42374e+7 
         954.93      1.45186e+7 
        955.099      1.47801e+7 
        955.267      1.50339e+7 
        955.437      1.52822e+7 
        955.534      1.54228e+7 
        955.774      1.57617e+7 
        956.014      1.60763e+7 
        956.494      1.67299e+7 
        956.975      1.73356e+7 
        957.455         1.79e+7 
        957.543      1.79974e+7 
        957.936      1.84114e+7 
         957.98      1.84558e+7 
        958.416      1.88753e+7 
        958.852      1.92542e+7 
        959.289      1.95848e+7 
        959.725       1.9869e+7 
        959.893      1.99649e+7 
        960.162      2.01016e+7 
         960.43      2.02155e+7 
        960.698      2.03266e+7 
        960.966      2.04116e+7 
        961.234      2.04696e+7 
        961.503         2.05e+7 
        961.771      2.05005e+7 
        962.039      2.04718e+7 
        962.307       2.0411e+7 
        962.576      2.03185e+7 
        962.844      2.01932e+7 
        963.112      2.00321e+7 
         963.38      1.98426e+7 
        963.648      1.96191e+7 
        963.917      1.93668e+7 
        964.047      1.92342e+7 
        964.139      1.91339e+7 
        964.185       1.9082e+7 
        964.231      1.90293e+7 
        964.415      1.88168e+7 
        964.783      1.83494e+7 
        965.152      1.78272e+7 
         965.52      1.72627e+7 
        965.888      1.66613e+7 
        966.257       1.6032e+7 
        966.625      1.53812e+7 
        966.993      1.47088e+7 
        967.428      1.39066e+7 
         967.73      1.33379e+7 
        968.032      1.27646e+7 
        968.334      1.21752e+7 
        968.637      1.15787e+7 
        968.939      1.09661e+7 
        969.185      1.04532e+7 
        969.241      1.03344e+7 
        969.297      1.02144e+7 
        969.339      1.01225e+7 
        969.409      9.97072e+6 
        969.633      9.46901e+6 
        969.779      9.12658e+6 
        969.927       8.7718e+6 
        970.074      8.40197e+6 
         970.22      8.01486e+6 
        970.367       7.6068e+6 
        970.514      7.17599e+6 
         970.66      6.71321e+6 
         970.74      6.44444e+6 
        970.807      6.21005e+6 
        970.874      5.96658e+6 
        971.008      5.44802e+6 
        971.144      4.87814e+6 
        971.209      4.58082e+6 
        971.278      4.24304e+6 
        971.348      3.88241e+6 
        971.389      3.65832e+6 
        971.467      3.21878e+6 
        971.487      3.10041e+6 
        971.585      2.51282e+6 
        971.644      2.15463e+6 
        971.703      1.80501e+6 
        971.732      1.64426e+6 
        971.762      1.49829e+6 
        971.778      1.43718e+6 
        971.792      1.40079e+6 
        971.806      1.38568e+6 
        971.821      1.38449e+6 
        971.827      1.38457e+6 
        971.833      1.38466e+6 
        971.836       1.3847e+6 
        971.839      1.38474e+6 
        971.851      1.38491e+6 
        971.866      1.38528e+6 
         971.88      1.39284e+6 
         971.91      1.47581e+6 
        971.969      1.77509e+6 
        972.037      2.18076e+6 
        972.087       2.4872e+6 
        972.137      2.79365e+6 
         972.15      2.87272e+6 
        972.237      3.38899e+6 
        972.324      3.87553e+6 
        972.499      4.74186e+6 
        972.548      4.96164e+6 
        972.673      5.48038e+6 
        972.798      5.95018e+6 
        972.923      6.37816e+6 
        973.048      6.77026e+6 
        973.173      7.13412e+6 
        973.298      7.47061e+6 
        973.351      7.60869e+6 
        973.423      7.79137e+6 
        973.548      8.09632e+6 
        973.746      8.55025e+6 
        973.943      8.98093e+6 
         974.14      9.38331e+6 
        974.337      9.77412e+6 
        974.731      1.05293e+7 
        975.126      1.12405e+7 
          975.4      1.17209e+7 
         975.52       1.1915e+7 
         975.64      1.21099e+7 
         975.88      1.25051e+7 
        976.361      1.32818e+7 
        976.601      1.36863e+7 
        976.841      1.41165e+7 
        977.081      1.45793e+7 
        977.321      1.50776e+7 
        977.802      1.60143e+7 
        978.042      1.65225e+7 
        978.282      1.70202e+7 
        978.522      1.75614e+7 
        978.762      1.81594e+7 
        978.883      1.84867e+7 
        979.003       1.8837e+7 
        979.123      1.92102e+7 
        979.181      1.93999e+7 
        979.243      1.96099e+7 
        979.305      1.98283e+7 
        979.429      2.02183e+7 
        979.553      2.06296e+7 
        979.801      2.15279e+7 
        979.925      2.20262e+7 
        980.049      2.24605e+7 
        980.173      2.28418e+7 
        980.298      2.32377e+7 
        980.422      2.36492e+7 
        980.546      2.40767e+7 
        980.794      2.48574e+7 
        981.042       2.5567e+7 
         981.29      2.62961e+7 
        981.787      2.76943e+7 
        982.283      2.90791e+7 
        982.628      3.00224e+7 
        982.952      3.09085e+7 
        983.276      3.18102e+7 
        983.599      3.27602e+7 
        983.923      3.37596e+7 
        984.571       3.5669e+7 
        985.113      3.71569e+7 
        985.218      3.74387e+7 
        985.866      3.92174e+7 
        986.242      4.02451e+7 
         986.43      4.07468e+7 
        986.618      4.12538e+7 
        986.806      4.17295e+7 
        986.995      4.20512e+7 
        987.183      4.23641e+7 
        987.371      4.26697e+7 
        987.559       4.2961e+7 
        987.747      4.32355e+7 
        987.935      4.35013e+7 
        988.123      4.37583e+7 
        988.312      4.41849e+7 
         988.44      4.44755e+7 
          988.5      4.46119e+7 
        988.658      4.49694e+7 
