# Koester WD models
# teff = 16250 K (value for the effective temperature for the model. Temperatures are given in K)
# logg = 9.25 log(cm/s2) (value for Log(G) for the model.)
#
# column 1: WAVELENGTH (ANGSTROM), Wavelength in Angstrom
# column 2: FLUX (ERG/CM2/S/A), Flux in erg/cm2/s/A
         899.23          809749 
        904.235          854658 
         908.45          893912 
        909.241          901420 
        910.032          908966 
        911.193          920100 
        911.613          924118 
        911.824          926116 
        911.929          927109 
        912.034          928096 
        912.139          938340 
        912.244          948579 
        912.349          958789 
        912.454          968930 
        912.559          979011 
        912.664          989011 
         912.77          998873 
        912.875      1.00844e+6 
        912.886      1.00942e+6 
        913.037      1.02214e+6 
        913.085      1.02595e+6 
        913.284      1.04053e+6 
        913.407      1.04772e+6 
        913.531      1.05482e+6 
        913.649      1.05776e+6 
        913.654      1.05792e+6 
        913.736      1.06185e+6 
        913.779      1.06378e+6 
        913.822      1.06539e+6 
        913.994      1.06085e+6 
        914.165      1.06301e+6 
        914.336      1.05841e+6 
        914.439      1.04685e+6 
        914.507      1.03794e+6 
        914.575       1.0351e+6 
        914.712      1.04907e+6 
        914.848      1.04201e+6 
        914.897      1.02248e+6 
        914.984          988417 
        915.071          970762 
        915.245      1.03259e+6 
        915.419      1.03988e+6 
        915.544          945946 
        915.594          907342 
        915.609          896303 
        915.643          882495 
        915.677          879231 
        915.745          905781 
        915.881      1.04429e+6 
        916.017      1.13398e+6 
        916.153      1.08181e+6 
        916.289          910980 
        916.379          813773 
        916.421          798197 
        916.425          797999 
        916.429          798031 
        916.479          817845 
         916.58          943204 
         916.68      1.11015e+6 
         916.78      1.24025e+6 
         916.88      1.29996e+6 
         916.98      1.26488e+6 
         917.08      1.14829e+6 
         917.18          972323 
        917.182          968537 
         917.28          790506 
        917.378          717599 
        917.575          987183 
        917.771      1.37478e+6 
        917.967      1.55549e+6 
        918.163      1.42416e+6 
        918.359      1.04191e+6 
         918.51          730734 
        918.556          677817 
        918.602          661362 
        918.694          732786 
        918.878      1.14317e+6 
        919.062       1.5698e+6 
        919.201      1.80255e+6 
        919.241      1.84908e+6 
        919.246      1.85417e+6 
        919.251      1.85907e+6 
        919.301      1.89768e+6 
        919.402      1.92613e+6 
        919.502      1.89939e+6 
        919.602      1.80461e+6 
        919.702      1.64774e+6 
        919.802      1.45069e+6 
        919.902      1.21662e+6 
        920.002          971588 
        920.102          735714 
        920.165          649816 
        920.189          635679 
        920.202          632478 
        920.215          631372 
        920.265          650605 
        920.366          824310 
        920.466       1.0692e+6 
        920.566      1.32491e+6 
        920.666      1.58163e+6 
        920.866      2.02294e+6 
        921.066      2.31588e+6 
        921.266      2.44049e+6 
        921.467      2.39573e+6 
        921.667      2.16988e+6 
        921.867      1.78488e+6 
        922.067      1.30277e+6 
         922.13       1.1373e+6 
        922.267          784672 
        922.405          624822 
        922.542          787252 
        922.548          801961 
        922.679       1.1459e+6 
         922.81      1.50011e+6 
        922.941      1.83155e+6 
        923.072      2.15335e+6 
        923.203       2.4317e+6 
        923.335      2.68416e+6 
        923.466      2.87893e+6 
        923.597      3.02565e+6 
        923.728      3.12184e+6 
        923.859      3.17533e+6 
         923.99      3.18872e+6 
        924.121      3.15903e+6 
        924.252      3.08103e+6 
        924.384       2.9519e+6 
        924.515      2.77061e+6 
        924.646      2.53733e+6 
        924.777      2.27029e+6 
        924.908      1.96421e+6 
        925.039      1.63856e+6 
         925.17      1.28268e+6 
        925.302          911222 
        925.382          708486 
        925.433          647052 
        925.484          637674 
        925.586          710185 
        925.688          978107 
         925.79      1.27288e+6 
        925.892      1.56027e+6 
        925.994      1.82965e+6 
        926.096        2.096e+6 
        926.198      2.35007e+6 
        926.232      2.42951e+6 
        926.301      2.58767e+6 
        926.369       2.7445e+6 
        926.505      3.03477e+6 
        926.641      3.28934e+6 
        926.777      3.51032e+6 
        926.913      3.69816e+6 
        927.049      3.85021e+6 
        927.185      3.97534e+6 
        927.322      4.07351e+6 
        927.458      4.14806e+6 
        927.594       4.1961e+6 
         927.73      4.22362e+6 
        927.866      4.22862e+6 
        928.002      4.21021e+6 
        928.006      4.20929e+6 
        928.094      4.17706e+6 
        928.138      4.15498e+6 
        928.182      4.12925e+6 
        928.359      3.99014e+6 
        928.535      3.79338e+6 
        928.711      3.53806e+6 
        928.887      3.25186e+6 
        928.985      3.07692e+6 
        929.037      2.97836e+6 
        929.063      2.92716e+6 
        929.089      2.87444e+6 
        929.125      2.79885e+6 
        929.193      2.64814e+6 
        929.261      2.49389e+6 
        929.398       2.1651e+6 
        929.493      1.91958e+6 
        929.525      1.83433e+6 
        929.534      1.81048e+6 
        929.543      1.78639e+6 
        929.593      1.65028e+6 
        929.617       1.5831e+6 
        929.655      1.47353e+6 
        929.693      1.36235e+6 
        929.769      1.13504e+6 
        929.827          956684 
        929.883          794066 
         929.91          729757 
        929.939          684965 
        929.954          675763 
        929.968          671154 
        929.982          669866 
        929.996          669502 
         930.01          669511 
        930.024          669718 
        930.038          670306 
        930.052          671814 
        930.081          686099 
        930.137          796391 
        930.201          985370 
        930.247      1.12871e+6 
        930.249      1.13493e+6 
        930.251      1.14117e+6 
        930.301      1.29453e+6 
        930.326      1.36596e+6 
        930.402      1.59123e+6 
        930.478      1.80536e+6 
         930.63      2.21549e+6 
        930.633      2.22347e+6 
        930.782      2.59668e+6 
        930.931      2.95106e+6 
         931.08      3.26927e+6 
        931.229      3.56439e+6 
        931.379      3.86498e+6 
        931.516       4.1235e+6 
        931.528      4.14549e+6 
        931.677      4.40134e+6 
        931.838      4.65364e+6 
        931.999       4.8771e+6 
         932.16      5.05536e+6 
        932.321      5.21354e+6 
        932.483      5.35129e+6 
        932.644      5.47209e+6 
        932.805      5.56932e+6 
        932.966      5.64522e+6 
        933.127      5.70708e+6 
        933.173      5.72216e+6 
        933.265       5.7488e+6 
        933.288      5.75471e+6 
        933.403      5.77949e+6 
        933.432      5.78402e+6 
        933.542      5.79662e+6 
        933.652      5.80098e+6 
        933.762      5.79655e+6 
        933.872      5.78295e+6 
        933.982      5.75716e+6 
        934.092      5.71754e+6 
        934.202      5.66593e+6 
        934.312      5.60177e+6 
        934.413      5.53439e+6 
        934.422      5.52832e+6 
        934.533      5.44771e+6 
        934.652      5.34617e+6 
        934.771       5.2294e+6 
         934.89      5.09865e+6 
        935.009      4.95058e+6 
        935.026        4.928e+6 
        935.128       4.7941e+6 
         935.23      4.66398e+6 
        935.332      4.52515e+6 
        935.434      4.37954e+6 
        935.537      4.22613e+6 
        935.639      4.06393e+6 
        935.741      3.89262e+6 
        935.843      3.70994e+6 
        935.945      3.51359e+6 
         935.95       3.5036e+6 
        936.047      3.30354e+6 
        936.144      3.09183e+6 
        936.338      2.63542e+6 
        936.464      2.31273e+6 
        936.532      2.12806e+6 
        936.601      1.93484e+6 
        936.645      1.80672e+6 
        936.714      1.59856e+6 
        936.737      1.52814e+6 
        936.829      1.23836e+6 
        936.887      1.04229e+6 
        936.944          857240 
        936.973          780513 
        937.001          734985 
        937.015          728466 
        937.029          726236 
        937.043          725997 
        937.058          726060 
        937.072          726167 
        937.086          726292 
        937.101          726481 
        937.115          726955 
        937.143          736185 
         937.15          744215 
        937.186          819717 
        937.199          856807 
         937.25      1.02299e+6 
        937.314      1.24165e+6 
        937.341      1.33015e+6 
        937.442      1.64816e+6 
        937.543        1.954e+6 
        937.645      2.24541e+6 
        937.746      2.52063e+6 
        937.847      2.77848e+6 
        937.896      2.90152e+6 
        937.948      3.02971e+6 
            938      3.15353e+6 
        938.104      3.39333e+6 
        938.208      3.62163e+6 
        938.312      3.83736e+6 
        938.416      4.04094e+6 
         938.52      4.23487e+6 
        938.624      4.42302e+6 
        938.729      4.60466e+6 
        938.752       4.6439e+6 
        938.833      4.78251e+6 
        938.881      4.86359e+6 
        938.914      4.91867e+6 
        939.076      5.18649e+6 
        939.271      5.52682e+6 
        939.466      5.84119e+6 
        939.661       6.1376e+6 
        939.857      6.42591e+6 
        940.052      6.70846e+6 
        940.247      6.96918e+6 
        940.442      7.20163e+6 
        940.534      7.30559e+6 
        940.637      7.41796e+6 
         940.74      7.52591e+6 
        940.947      7.71786e+6 
        941.153      7.89322e+6 
        941.359      8.05193e+6 
        941.565      8.18178e+6 
        941.771      8.30037e+6 
        941.978      8.40806e+6 
        942.184      8.50489e+6 
         942.39      8.58701e+6 
        942.596      8.65459e+6 
        942.802      8.70843e+6 
        942.891      8.72722e+6 
        942.969      8.74148e+6 
        943.009      8.74776e+6 
        943.048      8.75348e+6 
        943.204      8.77133e+6 
         943.36      8.77362e+6 
        943.516      8.76382e+6 
        943.672      8.74167e+6 
        943.828      8.70648e+6 
        943.984       8.6581e+6 
        944.141      8.59273e+6 
        944.297      8.51035e+6 
        944.453      8.41212e+6 
        944.609      8.29789e+6 
        944.765      8.16855e+6 
        944.847      8.10157e+6 
        945.077      7.89391e+6 
        945.308       7.6571e+6 
        945.538      7.40225e+6 
        945.768      7.11967e+6 
        945.998      6.82448e+6 
        946.228      6.52393e+6 
        946.459      6.22123e+6 
         946.68      5.92338e+6 
        946.689      5.91081e+6 
        946.919      5.58468e+6 
        947.039      5.40618e+6 
        947.158      5.22265e+6 
        947.277      5.03214e+6 
        947.397      4.83356e+6 
        947.517      4.62678e+6 
        947.637      4.40901e+6 
        947.669      4.34847e+6 
        947.756      4.17882e+6 
        947.772      4.14709e+6 
        947.876      3.93136e+6 
        947.979       3.7013e+6 
        948.083      3.45833e+6 
        948.187      3.20018e+6 
         948.29      2.92964e+6 
        948.394      2.64178e+6 
        948.449         2.48e+6 
        948.497       2.3356e+6 
        948.506      2.30805e+6 
        948.546      2.18569e+6 
        948.642      1.87475e+6 
        948.661       1.8112e+6 
        948.777      1.41305e+6 
        948.835      1.19383e+6 
        948.893          977390 
        948.922          887534 
        948.951          835554 
        948.966          831259 
         948.98          830800 
        948.994          830904 
        949.009          831042 
        949.023          831171 
        949.037          831300 
        949.052          831441 
        949.066          831595 
        949.095          836895 
        949.153          980177 
         949.23      1.27165e+6 
        949.258      1.38073e+6 
        949.269      1.42039e+6 
         949.28      1.46006e+6 
         949.33      1.63604e+6 
         949.36      1.73959e+6 
         949.43      1.97727e+6 
          949.5      2.20677e+6 
         949.64      2.64058e+6 
        949.781      3.04039e+6 
        949.795      3.07819e+6 
        949.879      3.30445e+6 
        949.921      3.41413e+6 
        949.963      3.52129e+6 
        950.131        3.928e+6 
        950.299      4.30012e+6 
        950.467      4.64111e+6 
        950.635       4.9601e+6 
        950.719      5.11414e+6 
        950.804      5.26437e+6 
        950.888      5.41142e+6 
        951.056      5.69769e+6 
        951.224      5.97515e+6 
        951.392      6.24599e+6 
        951.728      6.77327e+6 
        952.065      7.32629e+6 
        952.401      7.89822e+6 
        952.688      8.37756e+6 
        952.737       8.4616e+6 
        952.788      8.54903e+6 
        952.888      8.72059e+6 
        953.089      9.06133e+6 
        953.489      9.76297e+6 
        953.889      1.04785e+7 
         954.29      1.11625e+7 
         954.49      1.14922e+7 
         954.69      1.18161e+7 
         954.89      1.21216e+7 
         955.09      1.23944e+7 
         955.29      1.26604e+7 
        955.491      1.29203e+7 
        955.768      1.32689e+7 
        955.891      1.34115e+7 
        956.014      1.35504e+7 
         956.26      1.38557e+7 
        956.753      1.44321e+7 
        957.245      1.49627e+7 
        957.738      1.54478e+7 
        958.156       1.5825e+7 
         958.23      1.58873e+7 
        958.722      1.62774e+7 
        959.289      1.66582e+7 
        959.855      1.69605e+7 
         960.38      1.71672e+7 
        960.414      1.71779e+7 
        960.422      1.71803e+7 
         960.43      1.71828e+7 
         960.48      1.72021e+7 
         960.58      1.72385e+7 
         960.78      1.73016e+7 
         961.18      1.73856e+7 
        961.581      1.74126e+7 
        961.981      1.73787e+7 
        962.381      1.72818e+7 
        962.782      1.71218e+7 
        963.182       1.6892e+7 
        963.582      1.66004e+7 
        963.735      1.64737e+7 
        963.983      1.62498e+7 
        964.231      1.59973e+7 
        964.479      1.57335e+7 
        964.976      1.51476e+7 
        965.472      1.44956e+7 
        965.968      1.37893e+7 
        966.465       1.3049e+7 
        966.961      1.22899e+7 
        967.876      1.08654e+7 
        967.954      1.07437e+7 
        968.032      1.06203e+7 
        968.188        1.037e+7 
          968.5      9.86777e+6 
        968.953      9.12472e+6 
        969.125       8.8323e+6 
        969.297      8.53382e+6 
        969.356      8.42908e+6 
        969.641      7.90811e+6 
        969.784      7.63652e+6 
        969.927      7.35475e+6 
        970.069      7.06054e+6 
        970.212      6.75411e+6 
        970.354      6.43172e+6 
        970.497      6.09127e+6 
        970.639      5.72954e+6 
         970.69      5.59229e+6 
        970.782      5.33298e+6 
        970.874       5.0617e+6 
        971.058      4.46442e+6 
        971.137      4.18105e+6 
        971.243      3.77045e+6 
        971.348      3.31862e+6 
        971.453      2.82221e+6 
        971.477      2.70204e+6 
        971.531      2.42418e+6 
        971.558      2.27971e+6 
        971.585      2.13377e+6 
        971.653      1.75838e+6 
        971.683      1.59263e+6 
        971.693      1.53752e+6 
        971.703      1.48273e+6 
        971.732       1.3279e+6 
        971.744      1.26716e+6 
        971.753      1.22439e+6 
        971.762       1.1836e+6 
        971.778      1.12158e+6 
        971.792      1.08298e+6 
        971.806      1.06541e+6 
        971.821      1.06338e+6 
        971.827      1.06344e+6 
        971.833      1.06351e+6 
        971.836      1.06354e+6 
        971.839      1.06358e+6 
        971.851      1.06371e+6 
        971.866      1.06419e+6 
         971.88      1.07383e+6 
         971.91      1.16013e+6 
        971.969      1.45365e+6 
        972.037      1.83144e+6 
        972.087      2.11073e+6 
        972.137      2.38329e+6 
         972.15      2.45322e+6 
        972.237      2.90019e+6 
        972.324      3.31337e+6 
        972.499      4.04568e+6 
        972.548      4.23056e+6 
        972.673      4.66225e+6 
        972.798       5.0525e+6 
        972.923      5.40335e+6 
        973.048      5.72565e+6 
        973.173      6.02136e+6 
        973.298      6.29723e+6 
        973.423      6.55999e+6 
        973.548      6.80994e+6 
        973.601      6.91204e+6 
        973.673      7.04835e+6 
        973.746      7.18149e+6 
         973.89      7.44133e+6 
        974.034      7.69021e+6 
        974.178       7.9285e+6 
        974.466      8.39396e+6 
        974.754       8.8422e+6 
        975.043       9.2687e+6 
        975.331      9.69649e+6 
        975.556      9.99507e+6 
        975.598       1.0051e+7 
        975.619      1.00789e+7 
         975.64      1.01069e+7 
        975.724      1.02193e+7 
        975.892      1.04468e+7 
        976.228      1.08909e+7 
        976.565      1.13501e+7 
        976.733       1.1592e+7 
        976.901       1.1846e+7 
        977.069      1.21144e+7 
        977.237      1.24016e+7 
        977.405      1.26702e+7 
        977.574      1.29333e+7 
         977.91      1.35066e+7 
        978.246      1.40739e+7 
        978.414      1.43755e+7 
        978.582      1.46961e+7 
         978.75      1.50462e+7 
        978.919      1.54261e+7 
        979.087      1.58387e+7 
        979.105      1.58852e+7 
        979.205      1.61528e+7 
        979.255       1.6293e+7 
        979.305       1.6439e+7 
        979.505      1.69608e+7 
        979.705      1.75367e+7 
        979.905      1.81926e+7 
        980.105      1.87625e+7 
        980.306      1.92858e+7 
        980.506      1.98465e+7 
        980.906      2.08859e+7 
        981.091      2.13308e+7 
        981.306      2.18645e+7 
        981.707       2.2831e+7 
        982.507      2.47216e+7 
        983.923      2.82249e+7 
         984.06      2.85936e+7 
        985.339      3.17225e+7 
        985.979      3.32889e+7 
        986.299      3.40495e+7 
        986.618      3.48001e+7 
        986.938      3.54117e+7 
        987.258      3.58701e+7 
        987.577       3.6303e+7 
        987.897      3.66976e+7 
        988.057      3.68867e+7 
        988.216      3.71471e+7 
        988.377      3.74713e+7 
        988.401      3.75191e+7 
        988.537      3.77918e+7 
        988.629      3.79753e+7 
        988.856      3.84022e+7 
        989.084      3.87113e+7 
        989.312      3.90117e+7 
        989.426      3.91706e+7 
         989.54      3.92853e+7 
        989.654      3.93117e+7 
        989.769      3.93337e+7 
