# Koester WD models
# teff = 16250 K (value for the effective temperature for the model. Temperatures are given in K)
# logg = 9.5 log(cm/s2) (value for Log(G) for the model.)
#
# column 1: WAVELENGTH (ANGSTROM), Wavelength in Angstrom
# column 2: FLUX (ERG/CM2/S/A), Flux in erg/cm2/s/A
         899.23          895819 
        904.235          944953 
         908.45          987868 
        909.241          996070 
        910.032      1.00431e+6 
        911.193      1.01647e+6 
        911.613      1.02086e+6 
        911.824      1.02304e+6 
        911.929      1.02412e+6 
        912.034       1.0252e+6 
        912.139       1.0337e+6 
        912.244      1.04216e+6 
        912.349       1.0506e+6 
        912.454        1.059e+6 
        912.559      1.06734e+6 
        912.664      1.07562e+6 
         912.77      1.08378e+6 
        912.875      1.09173e+6 
        912.886      1.09254e+6 
        913.037      1.10345e+6 
        913.085      1.10681e+6 
        913.284      1.11991e+6 
        913.531      1.13391e+6 
        913.649      1.13872e+6 
        913.736      1.14286e+6 
        913.779      1.14462e+6 
        913.822      1.14617e+6 
        913.994      1.14737e+6 
        914.165       1.1516e+6 
        914.336      1.14748e+6 
        914.439       1.1431e+6 
        914.507      1.14069e+6 
        914.575      1.14032e+6 
        914.712      1.14184e+6 
        914.848      1.13154e+6 
        914.897      1.12162e+6 
        914.984      1.10489e+6 
        915.071       1.0966e+6 
        915.245      1.12512e+6 
        915.419      1.11664e+6 
        915.544      1.05645e+6 
        915.594       1.0322e+6 
        915.609      1.02531e+6 
        915.643      1.01625e+6 
        915.677      1.01597e+6 
        915.745       1.0374e+6 
        915.881      1.13108e+6 
        916.017      1.19125e+6 
        916.153      1.15016e+6 
        916.289      1.02374e+6 
        916.379          953165 
        916.421          941975 
        916.425          941928 
        916.429          942069 
        916.479          959584 
         916.58      1.05868e+6 
         916.68      1.18919e+6 
         916.78      1.29243e+6 
         916.88      1.33985e+6 
         916.98      1.30635e+6 
         917.08       1.2035e+6 
         917.18      1.05261e+6 
        917.182      1.04967e+6 
         917.28          904776 
        917.378          842889 
        917.575      1.07312e+6 
        917.771      1.41722e+6 
        917.967      1.57758e+6 
        918.163      1.44885e+6 
        918.359      1.09356e+6 
         918.51          825274 
        918.556          778864 
        918.602          763259 
        918.694          827954 
        918.878      1.19328e+6 
        919.062       1.5942e+6 
        919.201      1.81587e+6 
        919.241      1.86035e+6 
        919.246      1.86509e+6 
        919.251      1.86967e+6 
        919.301      1.90621e+6 
        919.402      1.93221e+6 
        919.502      1.90515e+6 
        919.602      1.81168e+6 
        919.702      1.65565e+6 
        919.802      1.46705e+6 
        919.902      1.24166e+6 
        920.002      1.01366e+6 
        920.102          811593 
        920.165          734778 
        920.189          720996 
        920.202          717581 
        920.215          716409 
        920.265          735676 
        920.366          884682 
        920.466      1.10616e+6 
        920.566      1.34909e+6 
        920.666      1.59753e+6 
        920.766      1.82394e+6 
        920.866      2.03556e+6 
        920.966      2.20033e+6 
        921.066      2.32679e+6 
        921.166      2.41129e+6 
        921.266      2.44956e+6 
        921.367      2.44831e+6 
        921.467      2.40401e+6 
        921.567      2.31004e+6 
        921.667      2.17442e+6 
        921.767      2.00193e+6 
        921.867      1.78762e+6 
        921.967      1.56287e+6 
        922.067       1.3156e+6 
        922.167      1.06342e+6 
        922.267          838601 
        922.331          735324 
        922.368          707295 
        922.405          700073 
        922.479          736612 
        922.627      1.03446e+6 
         922.74      1.32446e+6 
        922.775      1.41463e+6 
         922.81      1.50828e+6 
         922.88      1.68284e+6 
         923.02      2.03675e+6 
         923.16      2.35435e+6 
        923.301       2.6369e+6 
        923.441      2.86026e+6 
        923.581      3.02699e+6 
        923.721      3.13762e+6 
        923.861      3.19688e+6 
        924.001      3.20851e+6 
        924.141      3.16808e+6 
        924.282      3.07086e+6 
        924.422      2.91406e+6 
        924.562      2.70026e+6 
        924.702      2.42893e+6 
        924.842      2.12672e+6 
        924.982      1.77778e+6 
        925.122      1.41848e+6 
        925.262      1.04523e+6 
        925.322          895640 
        925.403          744853 
        925.484          708684 
        925.646          899001 
        925.808      1.32955e+6 
         925.97      1.76502e+6 
        926.132      2.19179e+6 
         926.22      2.40793e+6 
        926.295      2.58155e+6 
        926.369      2.75614e+6 
        926.517      3.07206e+6 
        926.665      3.35208e+6 
        926.813      3.59467e+6 
        926.961      3.79743e+6 
        927.109      3.96048e+6 
        927.257      4.08875e+6 
        927.406      4.18485e+6 
        927.554      4.24922e+6 
        927.702      4.28579e+6 
         927.85      4.29424e+6 
        927.998      4.27313e+6 
        928.038      4.26113e+6 
         928.11      4.22871e+6 
        928.146      4.20892e+6 
        928.182      4.18655e+6 
        928.327      4.07072e+6 
        928.471      3.92002e+6 
        928.615      3.72593e+6 
        928.759      3.48996e+6 
        928.903      3.24508e+6 
        929.005      3.05612e+6 
        929.047      2.97356e+6 
        929.085      2.89575e+6 
        929.089       2.8873e+6 
        929.173      2.70174e+6 
        929.261      2.49911e+6 
        929.333      2.32871e+6 
        929.438      2.06255e+6 
        929.543      1.78357e+6 
        929.648      1.49392e+6 
        929.705      1.33191e+6 
        929.737      1.24335e+6 
        929.753      1.19817e+6 
        929.769      1.15197e+6 
        929.783      1.11208e+6 
        929.827          987195 
        929.833          970727 
        929.883          846229 
         929.91          793642 
        929.939          756957 
        929.954          748183 
        929.968          743637 
        929.982          742006 
        929.996          741375 
         930.01          741271 
        930.024          741617 
        930.038          742487 
        930.052          744360 
        930.081          758201 
        930.137          848695 
        930.201      1.01391e+6 
        930.247       1.1465e+6 
        930.249      1.15235e+6 
        930.251      1.15819e+6 
        930.301      1.30184e+6 
        930.326      1.36927e+6 
        930.402      1.58915e+6 
        930.478      1.80258e+6 
         930.63      2.21731e+6 
        930.633      2.22534e+6 
        930.782       2.6032e+6 
        930.931      2.96489e+6 
         931.08      3.28862e+6 
        931.229      3.59791e+6 
        931.379      3.90934e+6 
        931.516      4.17703e+6 
        931.528      4.19946e+6 
        931.677      4.46134e+6 
        931.838      4.72496e+6 
        931.999      4.95834e+6 
         932.16      5.14863e+6 
        932.321      5.31737e+6 
        932.483      5.46398e+6 
        932.644      5.59147e+6 
        932.805      5.69363e+6 
        932.966      5.77343e+6 
        933.127      5.83849e+6 
        933.173      5.85439e+6 
        933.265      5.88248e+6 
        933.288      5.88873e+6 
        933.403      5.91496e+6 
        933.432      5.91964e+6 
        933.542      5.93246e+6 
        933.652      5.93645e+6 
        933.762      5.93082e+6 
        933.872       5.9154e+6 
        933.982      5.88772e+6 
        934.092      5.84628e+6 
        934.202      5.79225e+6 
        934.312      5.72521e+6 
        934.413      5.65493e+6 
        934.422      5.64865e+6 
        934.533      5.56483e+6 
        934.652      5.45896e+6 
        934.771       5.3376e+6 
         934.89      5.20417e+6 
        935.009      5.05325e+6 
        935.026      5.03026e+6 
        935.128      4.89124e+6 
         935.23      4.75354e+6 
        935.332      4.60623e+6 
        935.434      4.45333e+6 
        935.537      4.29204e+6 
        935.639      4.12036e+6 
        935.741      3.94085e+6 
        935.843      3.75018e+6 
        935.945      3.54478e+6 
         935.95      3.53439e+6 
        936.047      3.32955e+6 
        936.144      3.11287e+6 
        936.338      2.64534e+6 
        936.464      2.31654e+6 
        936.532      2.12789e+6 
        936.601      1.93329e+6 
        936.645      1.80479e+6 
        936.714       1.5989e+6 
        936.737      1.52983e+6 
        936.829      1.25431e+6 
        936.887      1.07171e+6 
        936.944          909673 
        936.973          846785 
        937.001          811178 
        937.015          805322 
        937.029          803107 
        937.043          802730 
        937.058          802733 
        937.072          802840 
        937.086          802988 
        937.101          803261 
        937.115          803896 
        937.143          812488 
         937.15          818888 
        937.186          879360 
        937.199          909827 
         937.25      1.05443e+6 
        937.314      1.25787e+6 
        937.341      1.34074e+6 
        937.442      1.64792e+6 
        937.543      1.95248e+6 
        937.645      2.24746e+6 
        937.746      2.52618e+6 
        937.847       2.7913e+6 
        937.896      2.91677e+6 
        937.948      3.04744e+6 
            938      3.17552e+6 
        938.104      3.42094e+6 
        938.208      3.65518e+6 
        938.312      3.88081e+6 
        938.416      4.09312e+6 
         938.52      4.29698e+6 
        938.543      4.34143e+6 
        938.556      4.36653e+6 
        938.624      4.49559e+6 
        938.729      4.68587e+6 
        938.914      5.01722e+6 
        939.093      5.32952e+6 
        939.271      5.64623e+6 
        939.449      5.94264e+6 
        939.628      6.22604e+6 
        939.807      6.49851e+6 
        939.986      6.77183e+6 
        940.164      7.02755e+6 
        940.343      7.25925e+6 
        940.521      7.47372e+6 
         940.58      7.54076e+6 
         940.66      7.63002e+6 
          940.7      7.67359e+6 
         940.74      7.71613e+6 
        940.901      7.86824e+6 
        941.061      8.00971e+6 
        941.221      8.14131e+6 
        941.381      8.26116e+6 
        941.541      8.36449e+6 
        941.701      8.46081e+6 
        942.022      8.63335e+6 
        942.342      8.77698e+6 
        942.662      8.88574e+6 
        942.917      8.94854e+6 
        942.982      8.96111e+6 
        943.048      8.97211e+6 
        943.178       8.9896e+6 
        943.438      8.99331e+6 
        943.698      8.96186e+6 
        943.958      8.89366e+6 
        944.088      8.84371e+6 
        944.219      8.78107e+6 
        944.349       8.7074e+6 
        944.479      8.62235e+6 
        944.609      8.52575e+6 
        944.691      8.45877e+6 
        944.739      8.41736e+6 
        944.845       8.3288e+6 
        944.999      8.18972e+6 
        945.153      8.03651e+6 
        945.308      7.86975e+6 
        945.462      7.69806e+6 
        945.616      7.51648e+6 
         945.77      7.32139e+6 
        945.924      7.11725e+6 
        946.232      6.70149e+6 
        946.541      6.27326e+6 
        946.695      6.05237e+6 
        946.849      5.82476e+6 
        947.004      5.58578e+6 
        947.158      5.33565e+6 
        947.312       5.0737e+6 
        947.468      4.79652e+6 
        947.471      4.79096e+6 
        947.622      4.50231e+6 
        947.624      4.49939e+6 
        947.777      4.18979e+6 
         947.93       3.8509e+6 
        948.083      3.48585e+6 
        948.233      3.09662e+6 
        948.236      3.08867e+6 
        948.389      2.66316e+6 
        948.546      2.18709e+6 
        948.627      1.92534e+6 
        948.661      1.81392e+6 
        948.702      1.67852e+6 
        948.777      1.43132e+6 
        948.835       1.2262e+6 
        948.893       1.0348e+6 
        948.922          960492 
        948.951          921417 
        948.966          917772 
         948.98          917354 
        948.994          917458 
        949.009          917609 
        949.023          917750 
        949.037          917895 
        949.052          918046 
        949.066          918225 
        949.095          922881 
        949.153      1.03774e+6 
         949.23      1.29941e+6 
        949.258      1.40153e+6 
        949.269      1.43875e+6 
         949.28      1.47612e+6 
         949.33      1.64263e+6 
         949.36      1.74385e+6 
         949.43      1.97762e+6 
          949.5      2.20818e+6 
         949.64       2.6483e+6 
        949.781      3.05619e+6 
        949.795      3.09493e+6 
        949.879      3.32604e+6 
        949.921      3.43832e+6 
        949.963      3.54928e+6 
        950.131      3.96793e+6 
        950.299      4.35632e+6 
        950.467      4.71374e+6 
        950.635      5.05306e+6 
        950.719      5.21564e+6 
        950.804      5.37426e+6 
        950.888      5.52971e+6 
        951.056      5.83252e+6 
        951.224      6.12472e+6 
        951.392      6.40885e+6 
        951.728      6.96651e+6 
        952.064      7.54494e+6 
        952.401      8.13456e+6 
        952.738      8.71459e+6 
        953.413      9.91672e+6 
         953.75      1.05325e+7 
        954.087      1.11293e+7 
        954.425      1.16917e+7 
        954.593      1.19656e+7 
        954.762      1.22343e+7 
         954.93      1.24793e+7 
        955.099      1.27058e+7 
        955.267      1.29267e+7 
        955.437      1.31434e+7 
        955.534      1.32658e+7 
        955.774      1.35612e+7 
        956.014      1.38366e+7 
        956.494      1.44069e+7 
        956.975      1.49377e+7 
        957.455       1.5427e+7 
        957.543      1.55119e+7 
        957.936      1.58729e+7 
         957.98      1.59117e+7 
        958.416      1.62784e+7 
        958.852      1.66092e+7 
        959.289      1.69004e+7 
        959.725      1.71494e+7 
        959.893      1.72334e+7 
        960.162       1.7353e+7 
         960.43      1.74526e+7 
        960.698       1.7551e+7 
        960.966      1.76262e+7 
        961.234      1.76774e+7 
        961.503      1.77043e+7 
        961.771      1.77045e+7 
        962.039       1.7679e+7 
        962.307      1.76252e+7 
        962.576      1.75438e+7 
        962.844      1.74334e+7 
        963.112      1.72914e+7 
         963.38      1.71227e+7 
        963.648      1.69255e+7 
        963.917      1.67025e+7 
        964.047      1.65857e+7 
        964.139      1.64977e+7 
        964.185      1.64523e+7 
        964.231      1.64061e+7 
        964.415      1.62199e+7 
        964.783      1.58127e+7 
        965.152      1.53545e+7 
         965.52      1.48626e+7 
        965.888      1.43391e+7 
        966.257      1.37934e+7 
        966.625      1.32324e+7 
        966.993      1.26527e+7 
        967.428      1.19649e+7 
         967.73      1.14773e+7 
        968.032       1.0986e+7 
        968.334      1.04813e+7 
        968.637       9.9705e+6 
        968.939      9.44548e+6 
        969.185      9.00553e+6 
        969.241      8.90349e+6 
        969.297      8.80048e+6 
        969.339      8.72156e+6 
        969.409      8.59128e+6 
        969.633      8.15887e+6 
        969.779      7.86334e+6 
        969.927      7.55742e+6 
        970.074      7.23795e+6 
         970.22      6.90274e+6 
        970.367      6.54944e+6 
        970.514      6.17653e+6 
         970.66      5.77557e+6 
         970.74       5.5435e+6 
        970.807       5.3413e+6 
        970.874      5.13079e+6 
        971.008       4.6843e+6 
        971.144      4.19318e+6 
        971.209      3.93736e+6 
        971.278      3.64528e+6 
        971.348      3.33395e+6 
        971.389      3.13986e+6 
        971.467      2.75837e+6 
        971.487      2.65559e+6 
        971.585      2.14303e+6 
        971.644      1.83045e+6 
        971.703      1.52584e+6 
        971.732      1.38702e+6 
        971.762      1.26264e+6 
        971.778      1.21224e+6 
        971.792       1.1833e+6 
        971.806      1.17218e+6 
        971.821      1.17142e+6 
        971.827      1.17149e+6 
        971.833      1.17157e+6 
        971.836       1.1716e+6 
        971.839      1.17164e+6 
        971.851      1.17179e+6 
        971.866      1.17206e+6 
         971.88       1.1775e+6 
         971.91      1.24412e+6 
        971.969      1.50003e+6 
        972.037       1.8534e+6 
        972.087      2.12056e+6 
        972.137      2.38868e+6 
         972.15      2.45733e+6 
        972.237      2.90627e+6 
        972.324      3.32823e+6 
        972.499      4.07694e+6 
        972.548      4.26584e+6 
        972.673      4.71317e+6 
        972.798      5.11762e+6 
        972.923      5.48742e+6 
        973.048      5.82583e+6 
        973.173      6.14059e+6 
        973.298      6.43247e+6 
        973.351      6.55217e+6 
        973.423      6.71044e+6 
        973.548      6.97465e+6 
        973.746      7.36883e+6 
        973.943      7.74195e+6 
         974.14       8.0902e+6 
        974.337      8.42855e+6 
        974.731      9.08203e+6 
        975.126      9.69533e+6 
          975.4      1.01094e+7 
         975.52      1.02765e+7 
         975.64      1.04444e+7 
         975.88      1.07846e+7 
        976.361      1.14527e+7 
        976.601      1.18008e+7 
        976.841      1.21708e+7 
        977.081      1.25681e+7 
        977.321      1.29959e+7 
        977.802      1.38015e+7 
        978.042      1.42387e+7 
        978.282      1.46688e+7 
        978.522      1.51341e+7 
        978.762      1.56516e+7 
        978.883      1.59362e+7 
        979.003      1.62395e+7 
        979.123      1.65627e+7 
        979.181       1.6727e+7 
        979.243      1.69094e+7 
        979.305       1.7102e+7 
        979.429       1.7441e+7 
        979.553      1.77969e+7 
        979.677      1.81749e+7 
        979.801      1.85815e+7 
        979.925      1.90191e+7 
        980.049      1.94001e+7 
        980.173      1.97328e+7 
        980.298       2.0078e+7 
        980.422      2.04362e+7 
        980.546      2.08107e+7 
        980.794      2.14992e+7 
        981.042      2.21183e+7 
         981.29      2.27523e+7 
        981.787      2.39824e+7 
        982.779      2.63813e+7 
        983.621      2.84836e+7 
        983.772      2.88875e+7 
        983.923      2.92982e+7 
        984.226      3.00882e+7 
         984.83      3.16126e+7 
        985.434      3.30379e+7 
        985.459      3.30986e+7 
        986.039      3.45145e+7 
        986.329      3.51971e+7 
        986.618      3.58786e+7 
        986.907      3.64378e+7 
        987.198      3.68518e+7 
        987.487      3.72483e+7 
        987.777      3.76093e+7 
        988.066       3.7953e+7 
        988.357      3.84748e+7 
         988.56      3.88734e+7 
        988.646      3.90428e+7 
        988.936      3.95344e+7 
        989.312      4.00302e+7 
          989.5      4.02862e+7 
        989.689      4.03399e+7 
        989.877       4.0382e+7 
        990.065       4.0415e+7 
        990.441      4.05875e+7 
        990.629      4.07006e+7 
        990.817      4.08068e+7 
