# Koester WD models
# teff = 16500 K (value for the effective temperature for the model. Temperatures are given in K)
# logg = 8.5 log(cm/s2) (value for Log(G) for the model.)
#
# column 1: WAVELENGTH (ANGSTROM), Wavelength in Angstrom
# column 2: FLUX (ERG/CM2/S/A), Flux in erg/cm2/s/A
         899.23          877239 
        901.354          897399 
        902.795          911275 
        904.235          925315 
        904.993          932764 
        907.116          953882 
         908.45          967315 
        909.241          975348 
        910.032          983422 
        911.193          995398 
        911.613          999721 
        911.824      1.00186e+6 
        911.929      1.00293e+6 
        912.034      1.00398e+6 
        912.139      1.02497e+6 
        912.244      1.04599e+6 
        912.349      1.06712e+6 
        912.454      1.08825e+6 
        912.559       1.1093e+6 
        912.664      1.13022e+6 
         912.77      1.15079e+6 
        912.875      1.17058e+6 
        912.886      1.17257e+6 
         912.98      1.18846e+6 
        913.085      1.20141e+6 
        913.284      1.21318e+6 
        913.339      1.21396e+6 
        913.435       1.2126e+6 
        913.483      1.21283e+6 
        913.531      1.21497e+6 
        913.625      1.21792e+6 
        913.724      1.20514e+6 
        913.822      1.19358e+6 
        913.871      1.19961e+6 
        914.018      1.20081e+6 
        914.165      1.12704e+6 
        914.312      1.21169e+6 
        914.343      1.22073e+6 
        914.459         1.13e+6 
        914.575      1.02223e+6 
        914.692      1.14651e+6 
        914.808      1.25334e+6 
        914.924      1.12867e+6 
        915.009          956851 
         915.04          916054 
        915.071          903249 
        915.133          962801 
        915.257      1.23264e+6 
        915.381      1.33347e+6 
        915.505      1.13396e+6 
        915.609          873030 
        915.617          858742 
         915.63          834300 
        915.643          817932 
        915.677          798803 
        915.745          878094 
        915.881       1.2659e+6 
        916.017      1.49215e+6 
        916.153      1.39427e+6 
        916.289      1.02487e+6 
        916.379          765506 
        916.421          722780 
        916.425          721998 
        916.429          721753 
        916.479          767086 
         916.58      1.07125e+6 
         916.68      1.40382e+6 
         916.78      1.64764e+6 
         916.88      1.75681e+6 
         916.98      1.71059e+6 
         917.08      1.52205e+6 
         917.18      1.21312e+6 
        917.182      1.20566e+6 
         917.28          842936 
        917.378          667592 
        917.575      1.22279e+6 
        917.771      1.85434e+6 
        917.967      2.12923e+6 
        918.163      1.95053e+6 
        918.359      1.38151e+6 
         918.51          790406 
        918.556          668776 
        918.602          635412 
        918.694          792307 
        918.878      1.52817e+6 
        919.062      2.14388e+6 
        919.201      2.46658e+6 
        919.241      2.53091e+6 
        919.246      2.53799e+6 
        919.251      2.54485e+6 
        919.301      2.59847e+6 
        919.402      2.64053e+6 
        919.502      2.60668e+6 
        919.602      2.48284e+6 
        919.702       2.2807e+6 
        919.802      2.00308e+6 
        919.902      1.67573e+6 
        920.002      1.29782e+6 
        920.102          853275 
        920.165          654479 
        920.189          630166 
        920.202          624175 
        920.215          622441 
        920.265          655261 
        920.366      1.02853e+6 
        920.466      1.45249e+6 
        920.566      1.82777e+6 
        920.666      2.17914e+6 
        920.766      2.48629e+6 
        920.866       2.7552e+6 
        920.966      2.96634e+6 
        921.066       3.1212e+6 
        921.166      3.22268e+6 
        921.266       3.2703e+6 
        921.367      3.27109e+6 
        921.467      3.21976e+6 
        921.567      3.11264e+6 
        921.667      2.94988e+6 
        921.767      2.73096e+6 
        921.867       2.4656e+6 
        921.967      2.16264e+6 
        922.067      1.81316e+6 
        922.167      1.42397e+6 
        922.267          975697 
        922.331          702498 
        922.368          636883 
        922.405          625981 
        922.479          703726 
        922.627      1.37115e+6 
         922.67      1.54773e+6 
         922.74      1.82317e+6 
        922.775       1.9522e+6 
         922.81      2.08213e+6 
         922.95      2.55192e+6 
         923.09      2.97466e+6 
         923.23      3.33785e+6 
        923.371      3.63759e+6 
        923.511      3.86441e+6 
        923.651      4.02438e+6 
        923.791      4.12111e+6 
        923.931      4.16509e+6 
        924.071      4.15535e+6 
        924.211      4.08043e+6 
        924.352      3.93761e+6 
        924.492      3.71779e+6 
        924.632      3.42845e+6 
        924.772      3.08921e+6 
        924.912      2.68552e+6 
        925.052      2.23481e+6 
        925.192      1.70414e+6 
        925.333       1.0612e+6 
        925.434          658025 
        925.462          645010 
        925.473          644052 
        925.484          643819 
        925.534          658805 
        925.634      1.05989e+6 
        925.734      1.53688e+6 
        925.834      1.95272e+6 
        925.934      2.32674e+6 
        926.034       2.6616e+6 
        926.134      2.98104e+6 
        926.232      3.27165e+6 
        926.234      3.27728e+6 
        926.301      3.45924e+6 
        926.335      3.55192e+6 
        926.369      3.64167e+6 
        926.505      3.99183e+6 
        926.641      4.29839e+6 
        926.777      4.55638e+6 
        926.913      4.77362e+6 
        927.049      4.94367e+6 
        927.185      5.08181e+6 
        927.322      5.19236e+6 
        927.458      5.27797e+6 
        927.594      5.33329e+6 
         927.73      5.36663e+6 
        927.866      5.37429e+6 
        928.002      5.35626e+6 
        928.006      5.35532e+6 
        928.094      5.31884e+6 
        928.138      5.29336e+6 
        928.182      5.26368e+6 
        928.359      5.10009e+6 
        928.535      4.85932e+6 
        928.711      4.56404e+6 
        928.887      4.23634e+6 
        928.985      4.03431e+6 
        929.037      3.91964e+6 
        929.063      3.85964e+6 
        929.089        3.798e+6 
        929.125      3.70925e+6 
        929.193      3.53382e+6 
        929.261      3.35095e+6 
        929.398      2.94946e+6 
        929.493      2.64366e+6 
        929.525      2.53608e+6 
        929.534      2.50536e+6 
        929.543      2.47424e+6 
        929.593      2.29402e+6 
        929.617      2.20463e+6 
        929.655      2.05743e+6 
        929.693      1.90264e+6 
        929.769      1.56799e+6 
        929.827      1.28211e+6 
        929.883          986426 
         929.91          839047 
        929.939          720150 
        929.954          691037 
        929.968          680573 
        929.982          677981 
        929.996          677550 
         930.01          677560 
        930.024          677770 
        930.038          678424 
        930.052          681239 
        930.081          721341 
        930.137          989250 
        930.201      1.32878e+6 
        930.247      1.55705e+6 
        930.249      1.56662e+6 
        930.251      1.57616e+6 
        930.301      1.80534e+6 
        930.326      1.90715e+6 
        930.402      2.21543e+6 
        930.478      2.49916e+6 
         930.63        3.013e+6 
        930.633      3.02269e+6 
        930.782      3.47771e+6 
        930.931      3.89265e+6 
         931.08      4.26462e+6 
        931.229      4.60592e+6 
        931.379      4.95159e+6 
        931.516      5.26035e+6 
        931.528      5.28739e+6 
        931.677      5.60005e+6 
        931.838      5.90252e+6 
        931.999      6.16761e+6 
         932.16      6.36948e+6 
        932.321      6.54969e+6 
        932.483      6.70425e+6 
        932.644       6.8416e+6 
        932.805      6.95561e+6 
        932.966      7.04719e+6 
        933.127      7.12224e+6 
        933.173      7.14062e+6 
        933.265      7.17329e+6 
        933.288      7.18055e+6 
        933.403      7.21124e+6 
        933.432      7.21699e+6 
        933.542      7.23377e+6 
        933.652      7.24118e+6 
        933.762      7.23892e+6 
        933.872      7.22629e+6 
        933.982      7.19742e+6 
        934.092      7.14929e+6 
        934.202      7.08649e+6 
        934.312       7.0083e+6 
        934.413      6.92517e+6 
        934.422       6.9175e+6 
        934.533       6.8154e+6 
        934.652      6.68697e+6 
        934.771      6.54014e+6 
         934.89      6.37765e+6 
        935.009      6.19632e+6 
        935.026      6.16886e+6 
        935.128      6.01056e+6 
         935.23      5.86403e+6 
        935.332      5.70736e+6 
        935.434      5.54152e+6 
        935.537      5.36396e+6 
        935.639       5.1753e+6 
        935.741      4.97911e+6 
        935.746      4.96915e+6 
        935.843       4.7679e+6 
        935.945      4.53907e+6 
        936.144      4.04791e+6 
        936.343      3.50464e+6 
        936.484      3.06893e+6 
        936.542      2.87138e+6 
        936.601      2.66421e+6 
        936.605      2.64951e+6 
        936.717      2.20974e+6 
        936.829      1.70538e+6 
        936.894      1.36078e+6 
        936.938      1.10481e+6 
        936.941      1.08735e+6 
        936.944      1.06995e+6 
        936.973          888147 
        936.987          813446 
        936.994          784255 
        937.001          764610 
        937.015          741680 
        937.029          735563 
        937.043          734910 
        937.058          734985 
        937.072          735095 
        937.086          735221 
        937.101          735400 
        937.115          736289 
        937.143          765851 
         937.15          785649 
        937.186          983419 
        937.199       1.0672e+6 
         937.25      1.36601e+6 
        937.314      1.70907e+6 
        937.341      1.84491e+6 
        937.442      2.28883e+6 
        937.543      2.68965e+6 
        937.645      3.05332e+6 
        937.746      3.38601e+6 
        937.847      3.69272e+6 
        937.896       3.8345e+6 
        937.948      3.98096e+6 
            938      4.12394e+6 
        938.104      4.40436e+6 
        938.208      4.66847e+6 
        938.312      4.91948e+6 
        938.416      5.15397e+6 
         938.52      5.37599e+6 
        938.543      5.42468e+6 
        938.624      5.59423e+6 
        938.729      5.80343e+6 
        938.914      6.15868e+6 
        938.927      6.18306e+6 
        939.099      6.51604e+6 
        939.271      6.88408e+6 
        939.443      7.23562e+6 
        939.615      7.57231e+6 
        939.788      7.89284e+6 
         939.96      8.21715e+6 
        940.132      8.52597e+6 
        940.304      8.80488e+6 
        940.476      9.05976e+6 
        940.556      9.17461e+6 
        940.648      9.30367e+6 
         940.74      9.42987e+6 
        940.925      9.66329e+6 
        941.109        9.881e+6 
        941.293      1.00849e+7 
        941.477      1.02569e+7 
        941.661      1.04089e+7 
        941.845      1.05487e+7 
         942.03      1.06762e+7 
        942.214      1.07916e+7 
        942.398      1.08872e+7 
        942.485      1.09261e+7 
        942.582      1.09649e+7 
        942.766      1.10255e+7 
        943.048      1.10824e+7 
        943.188       1.1097e+7 
        943.329      1.10962e+7 
        943.469       1.1081e+7 
         943.61      1.10514e+7 
         943.75       1.1007e+7 
        943.891      1.09476e+7 
        944.031      1.08731e+7 
        944.173      1.07723e+7 
        944.313      1.06534e+7 
        944.454       1.0517e+7 
        944.594      1.03632e+7 
        944.725       1.0206e+7 
        944.735      1.01934e+7 
         944.87      1.00337e+7 
        945.016      9.85043e+6 
        945.161       9.6532e+6 
        945.308      9.44331e+6 
        945.454      9.22529e+6 
        945.599      8.99495e+6 
        945.745      8.75223e+6 
         945.89      8.49983e+6 
        946.036      8.28165e+6 
        946.181      8.05856e+6 
        946.473      7.61305e+6 
        946.764      7.15812e+6 
        946.952      6.85304e+6 
        947.055      6.68038e+6 
        947.158      6.50432e+6 
        947.261      6.32268e+6 
        947.364      6.13393e+6 
        947.468      5.93723e+6 
        947.571      5.73196e+6 
        947.674      5.51573e+6 
        947.777      5.28592e+6 
         947.88      5.03864e+6 
        947.883      5.03123e+6 
        947.983      4.77673e+6 
        948.083      4.50429e+6 
        948.183      4.21935e+6 
        948.283      3.91515e+6 
        948.383      3.58757e+6 
        948.421      3.45506e+6 
        948.483      3.22764e+6 
        948.546      2.98808e+6 
        948.563      2.91961e+6 
         948.67      2.45912e+6 
        948.777      1.93327e+6 
        948.843      1.54773e+6 
        948.875      1.33805e+6 
        948.884      1.27805e+6 
        948.893      1.21896e+6 
        948.922      1.00101e+6 
        948.935          917188 
        948.943          879618 
        948.951          858616 
        948.966          842572 
         948.98          840926 
        948.994          841004 
        949.009          841146 
        949.023          841275 
        949.037          841406 
        949.052          841548 
        949.066          841733 
        949.095          859989 
        949.153      1.22236e+6 
         949.23      1.71772e+6 
        949.258      1.88193e+6 
        949.269      1.94299e+6 
         949.28      2.00372e+6 
         949.33      2.25788e+6 
         949.36      2.40085e+6 
         949.43      2.71872e+6 
          949.5      3.01596e+6 
         949.64      3.55327e+6 
        949.781      4.02865e+6 
        949.795      4.07358e+6 
        949.879      4.33502e+6 
        949.921      4.46031e+6 
        949.963      4.58393e+6 
        950.131      5.05397e+6 
        950.299      5.48142e+6 
        950.467      5.86853e+6 
        950.635      6.22758e+6 
        950.719      6.39958e+6 
        950.804      6.56671e+6 
        950.888      6.72979e+6 
        951.056      7.04782e+6 
        951.392      7.66489e+6 
        951.728      8.26864e+6 
        951.896      8.58613e+6 
        952.065      8.90591e+6 
        952.233       9.2513e+6 
        952.401      9.62791e+6 
        952.688      1.02652e+7 
        952.737      1.03758e+7 
        952.788      1.04907e+7 
        952.888      1.07164e+7 
        953.089      1.11699e+7 
        953.289      1.16271e+7 
        953.489      1.21349e+7 
        953.689      1.26508e+7 
        953.889        1.317e+7 
         954.29      1.41839e+7 
         954.69      1.51932e+7 
         955.09      1.61401e+7 
        955.491      1.70272e+7 
        955.768      1.76174e+7 
        955.891      1.78504e+7 
        956.014      1.80748e+7 
         956.26      1.85855e+7 
        956.506      1.90829e+7 
        956.999      2.00354e+7 
        957.491      2.09219e+7 
        957.984      2.17219e+7 
        958.476      2.24352e+7 
        958.648       2.2662e+7 
        958.969      2.30478e+7 
        959.289      2.33833e+7 
        959.609      2.36327e+7 
        959.929      2.38339e+7 
        960.069      2.39068e+7 
         960.25      2.39851e+7 
         960.43       2.4045e+7 
         960.79      2.41542e+7 
         961.15       2.4182e+7 
        961.511      2.41282e+7 
        961.871      2.39861e+7 
        962.231      2.37585e+7 
        962.592      2.34452e+7 
        962.952      2.30452e+7 
        963.114      2.28372e+7 
        963.312      2.25638e+7 
        963.393      2.24461e+7 
        963.672      2.20105e+7 
        963.952       2.1541e+7 
        964.231      2.10303e+7 
         964.51      2.04909e+7 
        964.789      1.99269e+7 
        965.348      1.87395e+7 
        965.906      1.74963e+7 
        966.465      1.62519e+7 
        967.131      1.47901e+7 
        967.582      1.38295e+7 
        967.668      1.36487e+7 
        968.032      1.28954e+7 
        968.482      1.19721e+7 
        968.668      1.15977e+7 
        968.983      1.09587e+7 
        969.297      1.03138e+7 
        969.611      9.65069e+6 
        969.876      9.07405e+6 
        969.927      8.96237e+6 
        969.977       8.8493e+6 
        970.077      8.61865e+6 
        970.277      8.13817e+6 
        970.477      7.62241e+6 
         970.48      7.61431e+6 
        970.677       7.0535e+6 
        970.874      6.41859e+6 
        971.071      5.69046e+6 
         971.19      5.19057e+6 
        971.269      4.81949e+6 
        971.348      4.41482e+6 
        971.427      3.96695e+6 
        971.467      3.72304e+6 
        971.506      3.46992e+6 
        971.585      2.91507e+6 
        971.644      2.45565e+6 
        971.703      1.95229e+6 
        971.732      1.69267e+6 
        971.762      1.42035e+6 
        971.778      1.28391e+6 
        971.792      1.17839e+6 
        971.806      1.10225e+6 
        971.821      1.07622e+6 
        971.827      1.07606e+6 
        971.833      1.07613e+6 
        971.836      1.07617e+6 
        971.839       1.0762e+6 
        971.851      1.07634e+6 
        971.866      1.08531e+6 
         971.88       1.1417e+6 
         971.91      1.36958e+6 
        971.969      1.90429e+6 
        972.037      2.48924e+6 
        972.087       2.8831e+6 
        972.137      3.24938e+6 
         972.15      3.34008e+6 
        972.237       3.9072e+6 
        972.324      4.41174e+6 
        972.499      5.26917e+6 
        972.548      5.48038e+6 
        972.673      5.97635e+6 
        972.798      6.41758e+6 
        972.923      6.81597e+6 
        973.048       7.1765e+6 
        973.173      7.50724e+6 
        973.298      7.81393e+6 
        973.351      7.93928e+6 
        973.423      8.10437e+6 
        973.548      8.37954e+6 
        973.746      8.79033e+6 
        973.943      9.18319e+6 
         974.14      9.55248e+6 
        974.337      9.91546e+6 
        974.731      1.06322e+7 
        975.126      1.13202e+7 
          975.4      1.17927e+7 
         975.52      1.19849e+7 
         975.64      1.21788e+7 
         975.88      1.25759e+7 
         976.12      1.29688e+7 
        976.361      1.33679e+7 
        976.601       1.3789e+7 
        976.841      1.42413e+7 
        977.081      1.47341e+7 
        977.321       1.5269e+7 
        977.562      1.57578e+7 
        977.802      1.62891e+7 
        978.042      1.68468e+7 
        978.282      1.73926e+7 
        978.522      1.79895e+7 
        978.762      1.86587e+7 
        978.883      1.90264e+7 
        979.003       1.9419e+7 
        979.123      1.98409e+7 
        979.181      2.00561e+7 
        979.243       2.0295e+7 
        979.305      2.05439e+7 
        979.429      2.09824e+7 
        979.553      2.14523e+7 
        979.677      2.19579e+7 
        979.801      2.25034e+7 
        979.925      2.30948e+7 
        980.049      2.36098e+7 
        980.173      2.40634e+7 
        980.298      2.45382e+7 
        980.422      2.50359e+7 
        980.546      2.55602e+7 
        980.794      2.65158e+7 
        981.042      2.73889e+7 
         981.29      2.83102e+7 
        981.636      2.95624e+7 
        981.787      3.01297e+7 
        982.207      3.16993e+7 
        982.779      3.38255e+7 
        983.066      3.49301e+7 
