# Koester WD models
# teff = 16750 K (value for the effective temperature for the model. Temperatures are given in K)
# logg = 8.25 log(cm/s2) (value for Log(G) for the model.)
#
# column 1: WAVELENGTH (ANGSTROM), Wavelength in Angstrom
# column 2: FLUX (ERG/CM2/S/A), Flux in erg/cm2/s/A
         899.23      1.07933e+6 
        901.472      1.10492e+6 
        904.235      1.13709e+6 
         908.45       1.1875e+6 
        909.241      1.19713e+6 
        910.032      1.20681e+6 
        911.193      1.22124e+6 
        911.613      1.22644e+6 
        911.824      1.22902e+6 
        911.929       1.2303e+6 
        912.034      1.23157e+6 
        912.139      1.26101e+6 
        912.244      1.29065e+6 
        912.349      1.32036e+6 
        912.454       1.3501e+6 
        912.559      1.37978e+6 
        912.664      1.40926e+6 
         912.77      1.43824e+6 
        912.875      1.46596e+6 
        912.886      1.46876e+6 
         912.98      1.49079e+6 
        913.085      1.50672e+6 
        913.284      1.50737e+6 
        913.433      1.50021e+6 
        913.483      1.49329e+6 
        913.533      1.49374e+6 
        913.633      1.50713e+6 
        913.645      1.50589e+6 
        913.734      1.47502e+6 
        913.822      1.44523e+6 
        913.831      1.44655e+6 
        913.998      1.50023e+6 
        914.165       1.3393e+6 
        914.332      1.52631e+6 
        914.423       1.4673e+6 
        914.499      1.28957e+6 
        914.575      1.19689e+6 
        914.728       1.5045e+6 
         914.88        1.525e+6 
        914.982      1.21904e+6 
        915.032      1.08692e+6 
        915.082      1.05518e+6 
        915.182      1.30717e+6 
        915.282      1.63431e+6 
        915.382       1.7218e+6 
        915.482      1.52946e+6 
        915.522      1.38614e+6 
        915.583      1.14518e+6 
        915.593       1.1029e+6 
        915.643          961773 
        915.693          939760 
        915.793      1.24355e+6 
        915.893      1.66712e+6 
        915.993       1.9138e+6 
        916.093      1.92524e+6 
        916.193       1.6956e+6 
        916.293       1.2746e+6 
        916.343      1.04103e+6 
        916.393          880862 
        916.443          851095 
        916.544      1.17393e+6 
        916.644      1.66837e+6 
        916.744      2.04605e+6 
        916.844      2.25362e+6 
        916.944      2.27008e+6 
        917.044      2.09037e+6 
        917.144      1.72897e+6 
        917.244      1.23462e+6 
        917.294          976969 
        917.344          814803 
        917.394          792357 
        917.495      1.14061e+6 
        917.595      1.68095e+6 
        917.695      2.13532e+6 
        917.795      2.48095e+6 
        917.895       2.6926e+6 
        917.995      2.75876e+6 
        918.095      2.67945e+6 
        918.195       2.4392e+6 
        918.295      2.08718e+6 
        918.395       1.6243e+6 
        918.496      1.05317e+6 
        918.546          828359 
        918.596          750922 
        918.646          795784 
        918.746      1.28261e+6 
        918.846      1.83203e+6 
        918.946      2.30052e+6 
        919.046      2.71261e+6 
        919.146      3.04421e+6 
        919.196      3.16638e+6 
        919.246      3.26496e+6 
        919.296      3.33408e+6 
        919.397      3.39104e+6 
        919.497      3.35481e+6 
        919.597      3.21039e+6 
        919.697      2.96543e+6 
        919.797      2.62178e+6 
        919.897      2.20909e+6 
        919.997      1.71822e+6 
        920.097      1.11516e+6 
        920.147          846521 
        920.197          740652 
        920.247          752468 
        920.347      1.20932e+6 
        920.448      1.80152e+6 
        920.548      2.30116e+6 
        920.648       2.7445e+6 
        920.748      3.14263e+6 
        920.848      3.47985e+6 
        920.948      3.75021e+6 
        921.048      3.94631e+6 
        921.148      4.08008e+6 
        921.248      4.14609e+6 
        921.349      4.15824e+6 
        921.449       4.1093e+6 
        921.549      3.99504e+6 
        921.649      3.81223e+6 
        921.749       3.5577e+6 
        921.849      3.24263e+6 
        921.949      2.87732e+6 
        922.049       2.4449e+6 
        922.149      1.95661e+6 
        922.249       1.3769e+6 
        922.294      1.06854e+6 
         922.35          790406 
        922.405          739518 
        922.515      1.07121e+6 
        922.625      1.77995e+6 
         922.66      1.96875e+6 
        922.735      2.35192e+6 
         922.81      2.70355e+6 
         922.96      3.32629e+6 
         923.11      3.87208e+6 
         923.26      4.32311e+6 
        923.411      4.67705e+6 
        923.561      4.93183e+6 
        923.711      5.09972e+6 
        923.861      5.19283e+6 
        924.011      5.21432e+6 
        924.161      5.15312e+6 
        924.312      5.00295e+6 
        924.462      4.75028e+6 
        924.612      4.39889e+6 
        924.762      3.97421e+6 
        924.912      3.45267e+6 
        925.062      2.85144e+6 
        925.212      2.11663e+6 
        925.241      1.94981e+6 
        925.363      1.17052e+6 
        925.484          759722 
        925.605      1.17368e+6 
        925.726      1.96005e+6 
        925.847      2.60272e+6 
        925.968      3.15504e+6 
        926.089      3.64001e+6 
         926.21      4.08731e+6 
        926.282      4.32443e+6 
        926.332      4.48638e+6 
        926.382      4.63979e+6 
        926.482      4.94634e+6 
        926.682      5.47127e+6 
        926.882      5.88046e+6 
        927.082      6.17778e+6 
        927.283      6.39565e+6 
        927.483       6.5479e+6 
        927.683       6.6297e+6 
        927.883      6.64818e+6 
        927.984      6.63215e+6 
        928.083      6.58896e+6 
        928.182      6.51481e+6 
        928.381      6.28601e+6 
        928.579       5.9466e+6 
        928.777      5.53794e+6 
        928.861      5.35855e+6 
        928.975      5.08869e+6 
        929.089      4.78703e+6 
        929.145      4.62464e+6 
        929.203      4.44545e+6 
        929.261      4.25849e+6 
        929.378      3.85049e+6 
        929.444      3.59706e+6 
        929.494      3.39886e+6 
        929.544      3.18752e+6 
        929.644      2.72538e+6 
        929.694      2.47102e+6 
        929.705      2.41287e+6 
        929.744      2.19743e+6 
        929.794      1.88852e+6 
        929.827      1.67033e+6 
        929.883       1.2697e+6 
        929.889       1.2228e+6 
        929.939          873309 
        929.989          798756 
        930.039          800032 
        930.089          911360 
        930.139      1.28773e+6 
        930.189      1.64855e+6 
        930.239       1.9801e+6 
        930.289      2.28391e+6 
        930.301      2.35095e+6 
         930.39      2.81132e+6 
        930.478      3.22299e+6 
        930.654      3.94663e+6 
        930.729      4.22613e+6 
         930.83      4.57538e+6 
        930.931      4.90107e+6 
        931.032      5.20132e+6 
        931.133      5.48258e+6 
        931.234      5.74748e+6 
        931.237      5.75511e+6 
        931.335      6.02338e+6 
        931.388        6.165e+6 
        931.538      6.56747e+6 
        931.688       6.9481e+6 
        931.838      7.29412e+6 
        931.988        7.603e+6 
        932.138      7.83878e+6 
        932.288       8.0503e+6 
        932.439      8.23411e+6 
        932.589      8.39833e+6 
        932.739      8.54246e+6 
        932.889      8.65989e+6 
        933.039      8.75882e+6 
        933.189      8.83984e+6 
        933.275      8.87802e+6 
        933.339      8.90227e+6 
        933.403      8.92285e+6 
        933.482      8.94122e+6 
        933.512      8.94675e+6 
        933.532      8.94993e+6 
        933.582      8.95621e+6 
        933.652       8.9608e+6 
        933.792      8.95505e+6 
        933.932      8.92759e+6 
        934.072      8.85543e+6 
        934.212      8.75358e+6 
        934.352      8.62116e+6 
        934.493      8.46581e+6 
        934.583      8.35035e+6 
        934.633      8.28052e+6 
        934.683      8.20653e+6 
        934.783      8.04744e+6 
        934.983      7.68889e+6 
        935.133      7.40106e+6 
        935.183      7.31495e+6 
        935.233      7.22595e+6 
        935.333      7.04056e+6 
        935.534      6.63756e+6 
        935.734      6.19205e+6 
        935.934      5.69093e+6 
        936.084      5.26839e+6 
        936.134      5.11825e+6 
        936.184      4.96645e+6 
        936.284      4.64673e+6 
        936.384      4.30423e+6 
        936.484       3.9236e+6 
        936.534      3.71848e+6 
        936.585      3.50024e+6 
        936.635      3.27037e+6 
        936.641      3.24178e+6 
        936.714      2.87672e+6 
        936.735      2.76613e+6 
        936.829      2.21853e+6 
        936.887      1.81975e+6 
        936.944      1.37552e+6 
        936.951      1.31449e+6 
        937.001          919576 
        937.051          864968 
        937.101          865578 
        937.151          958359 
        937.201      1.38715e+6 
        937.251      1.78154e+6 
        937.301      2.13623e+6 
        937.351      2.45628e+6 
        937.359      2.50304e+6 
        937.451      3.00804e+6 
        937.543      3.45962e+6 
        937.728      4.24005e+6 
        937.824      4.59298e+6 
        937.912      4.89485e+6 
            938       5.1798e+6 
        938.176      5.72194e+6 
        938.352      6.21536e+6 
        938.528      6.66505e+6 
        938.705      7.09626e+6 
        938.831      7.39088e+6 
        938.881       7.5057e+6 
        938.931      7.61934e+6 
        939.031      7.84327e+6 
        939.181      8.23631e+6 
        939.231      8.36895e+6 
        939.281      8.50021e+6 
        939.381      8.75863e+6 
        939.581      9.26528e+6 
        939.782      9.74861e+6 
        939.982      1.02361e+7 
        940.024      1.03359e+7 
        940.182      1.07019e+7 
        940.203      1.07495e+7 
        940.382      1.11036e+7 
        940.561      1.14428e+7 
         940.69      1.16784e+7 
         940.74      1.17674e+7 
         940.79      1.18523e+7 
        940.891      1.20188e+7 
        941.091      1.23368e+7 
        941.291      1.26334e+7 
        941.491      1.28829e+7 
        941.691      1.31033e+7 
        941.891      1.33034e+7 
        942.092      1.34841e+7 
        942.292      1.36425e+7 
        942.337      1.36729e+7 
        942.492      1.37672e+7 
        942.515      1.37796e+7 
        942.692      1.38644e+7 
         942.87       1.3926e+7 
        943.048       1.3963e+7 
        943.225      1.39795e+7 
        943.403      1.39626e+7 
         943.58      1.39147e+7 
        943.758       1.3835e+7 
        943.935      1.37232e+7 
        944.114      1.35698e+7 
        944.291      1.33665e+7 
        944.469      1.31267e+7 
        944.646      1.28526e+7 
        944.824      1.25617e+7 
        945.051      1.21755e+7 
        945.179      1.19386e+7 
        945.308      1.16894e+7 
        945.436      1.14323e+7 
        945.692      1.08865e+7 
         945.82      1.05986e+7 
        945.948      1.03328e+7 
        946.076      1.00899e+7 
        946.204      9.84446e+6 
        946.275      9.70736e+6 
        946.333      9.59741e+6 
        946.461      9.35987e+6 
        946.717      8.86856e+6 
        946.938      8.43697e+6 
        947.158      7.98747e+6 
        947.268       7.7553e+6 
        947.378      7.51519e+6 
         947.49      7.26619e+6 
          947.6      7.00456e+6 
         947.71      6.72863e+6 
         947.82      6.43496e+6 
        947.931      6.11841e+6 
        947.991       5.9367e+6 
        948.041      5.78081e+6 
        948.091      5.61934e+6 
        948.191      5.28428e+6 
        948.291      4.92432e+6 
        948.391      4.52757e+6 
        948.437      4.33175e+6 
        948.491      4.08988e+6 
        948.546      3.83054e+6 
        948.654       3.2633e+6 
        948.712        2.927e+6 
        948.731      2.80972e+6 
        948.762      2.61006e+6 
        948.812      2.24737e+6 
        948.835      2.06841e+6 
        948.893       1.5617e+6 
        948.901      1.48359e+6 
        948.951       1.0225e+6 
        949.001          987824 
        949.049          988345 
        949.051          988367 
        949.101      1.04792e+6 
        949.153      1.56595e+6 
        949.207      2.04316e+6 
        949.257      2.43039e+6 
        949.307      2.77524e+6 
        949.314      2.81952e+6 
        949.407      3.37171e+6 
          949.5      3.86535e+6 
        949.687      4.71666e+6 
        949.783      5.09827e+6 
        949.873      5.43021e+6 
        949.963      5.74283e+6 
        950.143       6.3266e+6 
        950.323      6.85335e+6 
        950.503      7.33267e+6 
        950.683      7.77796e+6 
        950.814      8.08596e+6 
        950.864      8.20176e+6 
        950.914      8.31671e+6 
        951.014      8.54369e+6 
        951.214      8.99287e+6 
        951.614      9.87685e+6 
        951.814      1.03263e+7 
        952.015      1.07947e+7 
        952.092      1.09774e+7 
        952.215      1.12963e+7 
        952.415      1.18762e+7 
        952.738      1.28193e+7 
        953.061       1.3787e+7 
        953.223      1.42784e+7 
        953.385      1.48072e+7 
        953.546      1.53694e+7 
        953.708      1.59422e+7 
        953.869      1.65236e+7 
        953.988      1.69563e+7 
        954.031      1.71085e+7 
        954.355      1.82492e+7 
        954.495      1.87517e+7 
        954.748      1.96678e+7 
        955.001      2.05418e+7 
        955.254      2.13812e+7 
        955.508       2.2207e+7 
        955.761      2.30118e+7 
        956.014      2.37123e+7 
         956.52      2.51623e+7 
        957.027      2.65438e+7 
        957.533      2.78447e+7 
        957.804      2.84929e+7 
         958.04      2.90286e+7 
        958.175      2.93229e+7 
        958.546      3.00885e+7 
        958.918      3.07722e+7 
        959.289      3.13615e+7 
        959.633       3.1792e+7 
         959.66      3.18218e+7 
        960.031      3.21803e+7 
         960.43      3.24369e+7 
        960.629      3.25764e+7 
        960.828      3.26751e+7 
        961.027      3.27285e+7 
        961.226      3.27392e+7 
        961.426      3.27068e+7 
        961.625      3.26261e+7 
        961.824      3.25007e+7 
        962.023      3.23317e+7 
        962.222      3.21165e+7 
        962.421      3.18557e+7 
        962.621      3.15545e+7 
         962.82      3.12097e+7 
        963.019      3.08176e+7 
        963.417      2.99304e+7 
        963.816      2.89116e+7 
        964.164      2.79345e+7 
        964.214      2.77855e+7 
        964.264      2.76356e+7 
        964.364       2.7333e+7 
        964.564      2.67171e+7 
        964.965      2.54427e+7 
        965.365      2.41401e+7 
        965.765      2.28097e+7 
        966.166       2.1504e+7 
        966.566      2.02304e+7 
        966.701      1.98109e+7 
        966.966      1.89866e+7 
        967.034      1.87817e+7 
        967.366      1.77989e+7 
          967.7      1.68431e+7 
        968.032      1.59253e+7 
        968.098      1.57432e+7 
        968.364      1.50232e+7 
        968.668      1.42262e+7 
        968.698      1.41475e+7 
        969.297      1.25919e+7 
        969.611      1.17691e+7 
        969.927      1.09277e+7 
        970.084      1.04917e+7 
        970.242      1.00395e+7 
        970.399      9.56722e+6 
        970.556      9.06871e+6 
        970.713      8.52757e+6 
        970.821      8.12931e+6 
         970.87      7.93573e+6 
         970.92      7.73463e+6 
         971.02      7.30844e+6 
         971.12      6.84496e+6 
        971.222      6.32921e+6 
        971.272      6.04904e+6 
        971.322      5.74798e+6 
        971.371      5.42594e+6 
        971.472      4.70724e+6 
        971.522      4.30602e+6 
         971.54      4.14731e+6 
        971.572      3.86815e+6 
        971.621      3.39025e+6 
        971.644      3.16123e+6 
        971.703      2.50884e+6 
        971.712      2.40273e+6 
        971.762      1.79928e+6 
        971.812      1.28575e+6 
        971.855      1.25994e+6 
        971.862      1.27064e+6 
        971.912      1.75255e+6 
        971.969      2.44425e+6 
        972.033      3.16195e+6 
        972.083      3.66545e+6 
        972.133      4.12381e+6 
        972.142      4.20329e+6 
        972.233       4.9384e+6 
        972.324      5.57724e+6 
        972.507      6.63498e+6 
         972.58      6.99523e+6 
        972.689      7.48396e+6 
        972.798       7.9274e+6 
        972.907      8.33069e+6 
        973.016      8.70312e+6 
        973.125      9.04939e+6 
        973.234      9.37194e+6 
        973.343      9.67852e+6 
        973.377       9.7718e+6 
        973.452      9.97292e+6 
        973.561      1.02563e+7 
        973.746      1.07147e+7 
         973.93      1.11563e+7 
        974.114      1.15762e+7 
        974.482      1.24031e+7 
        974.797       1.3097e+7 
         974.85      1.32107e+7 
        975.219      1.40258e+7 
         975.64       1.4902e+7 
        976.061      1.57931e+7 
        976.273      1.62407e+7 
        976.483      1.67098e+7 
        976.694      1.72077e+7 
        976.904      1.77446e+7 
        977.115      1.83304e+7 
        977.325      1.89601e+7 
        977.536      1.95352e+7 
        977.747      2.01588e+7 
        977.958      2.08427e+7 
        978.168      2.14845e+7 
        978.379       2.2177e+7 
        978.589       2.2934e+7 
        978.716      2.34345e+7 
          978.8      2.37841e+7 
        978.864       2.4061e+7 
        979.011      2.47421e+7 
        979.158      2.54899e+7 
        979.305      2.63171e+7 
        979.452      2.70751e+7 
        979.599      2.79023e+7 
        979.746      2.88113e+7 
        979.893      2.98171e+7 
         980.04      3.07673e+7 
        980.188      3.15699e+7 
        980.482      3.33304e+7 
         981.07      3.66969e+7 
        981.659      4.00531e+7 
        981.748      4.05784e+7 
        982.247      4.35296e+7 
        982.291      4.37878e+7 
        982.563      4.54039e+7 
        982.835      4.70771e+7 
        983.108      4.88084e+7 
        983.379      5.06224e+7 
        983.651      5.25987e+7 
        983.873      5.42943e+7 
        983.923      5.46888e+7 
        983.973      5.50935e+7 
        984.073      5.58836e+7 
        984.274      5.73799e+7 
        984.674      6.05375e+7 
        985.074      6.35591e+7 
        985.474       6.6686e+7 
        985.875      7.00321e+7 
        985.932      7.05187e+7 
        986.275       7.3414e+7 
        986.446      7.48607e+7 
        986.618      7.63306e+7 
         986.79      7.76809e+7 
        986.962      7.84811e+7 
        987.134      7.92589e+7 
        987.305      8.00135e+7 
        987.648      8.14276e+7 
        987.991      8.26999e+7 
        988.163      8.34181e+7 
        988.335      8.46499e+7 
        988.507      8.58707e+7 
        988.678      8.70969e+7 
         988.73      8.74701e+7 
         988.85       8.8231e+7 
        989.021      8.90063e+7 
        989.167      8.96504e+7 
        989.312      9.02818e+7 
        989.457      9.08797e+7 
        989.603       9.0984e+7 
        989.749      9.08574e+7 
        989.895       9.0711e+7 
         990.04      9.05454e+7 
        990.186      9.03619e+7 
        990.331      9.04782e+7 
        990.477      9.06227e+7 
        990.622      9.07506e+7 
        990.768      9.08621e+7 
        990.913      9.11178e+7 
        991.059      9.19648e+7 
