# Koester WD models
# teff = 16000 K (value for the effective temperature for the model. Temperatures are given in K)
# logg = 9.5 log(cm/s2) (value for Log(G) for the model.)
#
# column 1: WAVELENGTH (ANGSTROM), Wavelength in Angstrom
# column 2: FLUX (ERG/CM2/S/A), Flux in erg/cm2/s/A
         899.23          743257 
        904.235          784855 
         908.45          821231 
        909.241          828190 
        910.032          835183 
        911.193          845500 
        911.613          849226 
        911.824          851079 
        911.929          852000 
        912.034          852917 
        912.139          860240 
        912.244          867557 
        912.349          874880 
        912.454          882181 
        912.559          889438 
        912.664          896633 
         912.77          903720 
        912.875          910653 
        912.886          911367 
        913.037          920864 
        913.085          923782 
        913.284          935155 
        913.531          947231 
        913.649          951331 
        913.736          954903 
        913.779          956408 
        913.822          957724 
        913.994          958450 
        914.165          962019 
        914.336          958038 
        914.439          953869 
        914.507          951604 
        914.575          951240 
        914.712          952804 
        914.848          943565 
        914.897          934498 
        914.984          919287 
        915.071          911894 
        915.245          938139 
        915.419          931467 
        915.544          877673 
        915.594          856269 
        915.609          850313 
        915.643          842522 
        915.677          842091 
        915.745          860240 
        915.881          942946 
        916.017          997531 
        916.153          960746 
        916.289          848755 
        916.379          787915 
        916.421          778216 
        916.425          778163 
        916.429          778267 
        916.479          793013 
         916.58          877855 
         916.68          992605 
         916.78      1.08432e+6 
         916.88       1.1272e+6 
         916.98      1.09801e+6 
         917.08       1.0085e+6 
         917.18          876413 
        917.182          873837 
         917.28          749870 
        917.378          698816 
        917.575          892982 
        917.771      1.19358e+6 
        917.967      1.33532e+6 
        918.163      1.22461e+6 
        918.359          915184 
         918.51          687534 
        918.556          650175 
        918.602          637724 
        918.694          689715 
        918.878      1.00112e+6 
        919.062      1.34973e+6 
        919.201      1.54264e+6 
        919.241      1.58125e+6 
        919.246      1.58546e+6 
        919.251      1.58953e+6 
        919.301      1.62201e+6 
        919.402      1.64529e+6 
        919.502      1.62191e+6 
        919.602      1.54085e+6 
        919.702      1.40662e+6 
        919.802      1.24253e+6 
        919.902      1.04693e+6 
        920.002          849122 
        920.102          678694 
        920.165          618083 
        920.189          607364 
        920.202          604904 
        920.215          604078 
        920.265          618843 
        920.366          739374 
        920.466          928491 
        920.566      1.13902e+6 
        920.666      1.35465e+6 
        920.766      1.55053e+6 
        920.866      1.73297e+6 
        920.966      1.87468e+6 
        921.066      1.98411e+6 
        921.166      2.05706e+6 
        921.266      2.09033e+6 
        921.367      2.08951e+6 
        921.467      2.05157e+6 
        921.567      1.97076e+6 
        921.667      1.85469e+6 
        921.767      1.70653e+6 
        921.867      1.52226e+6 
        921.967      1.32711e+6 
        922.067      1.11249e+6 
        922.167          894308 
        922.267          703110 
        922.331          620596 
        922.368          600393 
        922.405          595150 
        922.479          621699 
        922.627          869027 
         922.74      1.12004e+6 
        922.775      1.19858e+6 
         922.81      1.28012e+6 
         922.88      1.43159e+6 
         923.02      1.73612e+6 
         923.16      2.00878e+6 
        923.301      2.25126e+6 
        923.441      2.44348e+6 
        923.581      2.58597e+6 
        923.721      2.68018e+6 
        923.861      2.73081e+6 
        924.001      2.74101e+6 
        924.141      2.70683e+6 
        924.282      2.62463e+6 
        924.422      2.49125e+6 
        924.562      2.30687e+6 
        924.702      2.07509e+6 
        924.842      1.81523e+6 
        924.982      1.51521e+6 
        925.041      1.38889e+6 
        925.122      1.20365e+6 
        925.152      1.13481e+6 
        925.262          879335 
        925.374          663486 
        925.484          606199 
        925.594          665220 
        925.705          883922 
        925.815      1.14409e+6 
        925.926      1.40556e+6 
        926.036      1.65611e+6 
        926.147      1.90379e+6 
        926.257       2.1316e+6 
        926.319      2.25564e+6 
        926.369      2.35503e+6 
        926.419      2.45088e+6 
        926.519       2.6301e+6 
        926.619      2.79396e+6 
        926.719      2.94502e+6 
        926.819      3.08063e+6 
        926.919      3.20056e+6 
        927.019      3.30395e+6 
        927.119      3.39386e+6 
        927.219      3.47064e+6 
         927.32      3.53385e+6 
         927.42      3.58497e+6 
         927.52       3.6238e+6 
         927.62      3.65106e+6 
         927.72      3.66812e+6 
         927.82      3.67394e+6 
         927.92      3.66841e+6 
         928.02      3.65081e+6 
        928.058      3.63859e+6 
         928.12      3.61305e+6 
        928.182      3.58142e+6 
        928.307      3.49738e+6 
        928.431      3.39188e+6 
        928.555      3.25799e+6 
        928.679      3.10065e+6 
        928.803      2.92263e+6 
        928.927      2.73756e+6 
        929.013       2.6009e+6 
        929.051      2.53613e+6 
        929.069      2.50448e+6 
        929.089      2.46871e+6 
        929.165      2.32642e+6 
        929.261      2.13665e+6 
        929.365       1.9232e+6 
        929.454      1.72498e+6 
        929.543      1.52097e+6 
        929.673      1.20753e+6 
        929.721      1.09075e+6 
        929.769          972339 
        929.833          816447 
        929.847          784223 
        929.865          745117 
        929.883          713138 
         929.91          672090 
        929.927          654746 
        929.933          649952 
        929.939          645751 
        929.954          640156 
        929.968          637417 
        929.982          636509 
        929.996          636257 
         930.01          636251 
        930.024          636468 
        930.038          636926 
        930.052          638048 
        930.081          646829 
        930.137          715250 
        930.201          852876 
        930.247          967557 
        930.249          972615 
        930.251          977673 
        930.301      1.10276e+6 
        930.326      1.16109e+6 
        930.402      1.35246e+6 
        930.478      1.53738e+6 
         930.63      1.89495e+6 
        930.633      1.90179e+6 
        930.782       2.2267e+6 
        930.931      2.53544e+6 
         931.08      2.81331e+6 
        931.229      3.07641e+6 
        931.379      3.34313e+6 
        931.516       3.5735e+6 
        931.528      3.59304e+6 
        931.677      3.81923e+6 
        931.838      4.04618e+6 
        931.999      4.24784e+6 
         932.16      4.41155e+6 
        932.321       4.5566e+6 
        932.483      4.68248e+6 
        932.644      4.79272e+6 
        932.805      4.88081e+6 
        932.966       4.9492e+6 
        933.127      5.00512e+6 
        933.173      5.01876e+6 
        933.265      5.04285e+6 
        933.288      5.04823e+6 
        933.403      5.07072e+6 
        933.432      5.07477e+6 
        933.542      5.08596e+6 
        933.652      5.08966e+6 
        933.762       5.0852e+6 
        933.872      5.07235e+6 
        933.982      5.04885e+6 
        934.092      5.01332e+6 
        934.202      4.96714e+6 
        934.312      4.90971e+6 
        934.413      4.84892e+6 
        934.422      4.84346e+6 
        934.533      4.77073e+6 
        934.652      4.67943e+6 
        934.771      4.57479e+6 
         934.89      4.45871e+6 
        935.009      4.32742e+6 
        935.026      4.30731e+6 
        935.128      4.18689e+6 
         935.23      4.06833e+6 
        935.332      3.94229e+6 
        935.434      3.81066e+6 
        935.537      3.67152e+6 
        935.639       3.5248e+6 
        935.741      3.37149e+6 
        935.843       3.2081e+6 
        935.945      3.03316e+6 
         935.95      3.02436e+6 
        936.047      2.84963e+6 
        936.144      2.66314e+6 
        936.338      2.26252e+6 
        936.464      1.98131e+6 
        936.532      1.81839e+6 
        936.601      1.65054e+6 
        936.645      1.53869e+6 
        936.714      1.36039e+6 
        936.737      1.29979e+6 
        936.829      1.06063e+6 
        936.887          902982 
        936.944          768189 
        936.973          719519 
        937.001          694898 
        937.015          691386 
        937.029          690264 
        937.043          690142 
        937.058          690220 
        937.072          690324 
        937.086          690444 
        937.101          690607 
        937.115          690949 
        937.143          696039 
         937.15          700079 
        937.186          744583 
        937.199          768496 
         937.25          888603 
        937.314      1.06369e+6 
        937.341      1.13602e+6 
        937.442      1.40279e+6 
        937.543      1.66718e+6 
        937.645      1.92129e+6 
        937.746      2.16193e+6 
        937.847      2.38926e+6 
        937.896      2.49681e+6 
        937.948       2.6086e+6 
            938      2.71746e+6 
        938.104      2.92869e+6 
        938.208      3.12851e+6 
        938.312      3.32117e+6 
        938.416      3.50313e+6 
         938.52       3.6773e+6 
        938.624      3.84767e+6 
        938.752      4.04747e+6 
        938.833      4.17307e+6 
        938.881      4.24671e+6 
        938.914      4.29688e+6 
        939.076       4.5402e+6 
        939.271      4.84248e+6 
        939.466      5.12325e+6 
        939.661      5.38862e+6 
        939.857      5.64726e+6 
        940.052      5.89916e+6 
        940.144      6.01144e+6 
        940.247      6.13088e+6 
        940.293       6.1813e+6 
        940.442       6.3387e+6 
        940.591      6.48711e+6 
         940.69      6.58098e+6 
         940.74      6.62653e+6 
         940.79      6.66872e+6 
        940.891      6.75053e+6 
        941.091      6.90409e+6 
        941.291      7.04442e+6 
        941.491      7.16355e+6 
        941.691      7.26974e+6 
        941.891      7.36675e+6 
        942.092      7.45447e+6 
        942.292      7.53203e+6 
        942.337      7.54752e+6 
        942.492      7.59684e+6 
        942.692      7.65081e+6 
         942.87      7.68917e+6 
        943.048      7.71826e+6 
        943.225       7.7368e+6 
        943.403      7.73749e+6 
         943.58      7.72483e+6 
        943.758        7.698e+6 
        943.935      7.65619e+6 
        944.114      7.59713e+6 
        944.291      7.51849e+6 
        944.469      7.42151e+6 
        944.646      7.30618e+6 
        944.824      7.17766e+6 
        945.001      7.04021e+6 
        945.051      6.99915e+6 
        945.179      6.88728e+6 
        945.308      6.76734e+6 
        945.564      6.51507e+6 
         945.82       6.2333e+6 
        946.076        5.941e+6 
        946.333      5.63058e+6 
        946.589       5.3255e+6 
        946.845      5.00167e+6 
        947.044      4.73331e+6 
        947.101      4.65399e+6 
        947.158      4.57337e+6 
        947.272      4.40838e+6 
        947.386      4.23581e+6 
        947.501       4.0562e+6 
        947.615      3.86997e+6 
        947.729      3.67478e+6 
        947.831      3.48956e+6 
        947.843      3.46716e+6 
        947.957      3.24731e+6 
        948.083      2.98695e+6 
        948.209      2.70942e+6 
        948.335      2.41445e+6 
        948.377      2.31143e+6 
        948.461      2.09577e+6 
        948.546      1.87031e+6 
        948.651      1.57468e+6 
        948.661      1.54607e+6 
        948.714       1.3937e+6 
        948.777      1.21292e+6 
        948.835      1.03544e+6 
        948.893          876046 
        948.922          818730 
        948.951          792247 
        948.966          790393 
         948.98          790283 
        948.994          790393 
        949.009          790528 
        949.023          790651 
        949.037          790773 
        949.052          790909 
        949.066          791044 
        949.095          793522 
        949.153          878572 
         949.23      1.09833e+6 
        949.258      1.18715e+6 
        949.269      1.21932e+6 
         949.28      1.25168e+6 
         949.33      1.39708e+6 
         949.36      1.48435e+6 
         949.43      1.68862e+6 
          949.5      1.88864e+6 
         949.64      2.26924e+6 
        949.781      2.61921e+6 
        949.795      2.65299e+6 
        949.879      2.85186e+6 
        949.921      2.94783e+6 
        949.963      3.04221e+6 
        950.131      3.40181e+6 
        950.299      3.73344e+6 
        950.467      4.03996e+6 
        950.635      4.33065e+6 
        950.719       4.4714e+6 
        950.804      4.60825e+6 
        950.888      4.74183e+6 
        951.056      5.00311e+6 
        951.224      5.25667e+6 
        951.392      5.50203e+6 
        951.728      5.98263e+6 
        952.064      6.48211e+6 
        952.401      6.99067e+6 
        952.738      7.49066e+6 
        953.413      8.52141e+6 
         953.75      9.05065e+6 
        954.087      9.56222e+6 
        954.425      1.00471e+7 
        954.593      1.02825e+7 
        954.762      1.05143e+7 
         954.93      1.07251e+7 
        955.099      1.09207e+7 
        955.267      1.11124e+7 
        955.437      1.13012e+7 
        955.534      1.14078e+7 
        955.774      1.16656e+7 
        956.014      1.19044e+7 
        956.494      1.23967e+7 
        956.975      1.28567e+7 
        957.455      1.32813e+7 
        957.543      1.33554e+7 
        957.936      1.36738e+7 
         957.98      1.37079e+7 
        958.416      1.40277e+7 
        958.852      1.43162e+7 
        959.289      1.45689e+7 
        959.725       1.4787e+7 
        959.893      1.48606e+7 
        960.162      1.49654e+7 
         960.43      1.50526e+7 
        960.698      1.51398e+7 
        960.966      1.52065e+7 
        961.234       1.5252e+7 
        961.503      1.52759e+7 
        961.771      1.52762e+7 
        962.039      1.52539e+7 
        962.307      1.52067e+7 
        962.576      1.51354e+7 
        962.844      1.50389e+7 
        963.112      1.49149e+7 
         963.38      1.47674e+7 
        963.648      1.45941e+7 
        963.917      1.43985e+7 
        964.047      1.42955e+7 
        964.139      1.42172e+7 
        964.185      1.41766e+7 
        964.231      1.41354e+7 
        964.415      1.39697e+7 
        964.783      1.36142e+7 
        965.152      1.32191e+7 
         965.52      1.27918e+7 
        965.888      1.23395e+7 
        966.257       1.1867e+7 
        966.993      1.08868e+7 
        967.428      1.02952e+7 
         967.73      9.87685e+6 
        968.032      9.45616e+6 
        968.334      9.02303e+6 
        968.637      8.58506e+6 
        968.939      8.13377e+6 
        969.185      7.75521e+6 
        969.241      7.66765e+6 
        969.297      7.57916e+6 
        969.339      7.51092e+6 
        969.409      7.39817e+6 
        969.633      7.02378e+6 
        969.779      6.76866e+6 
        969.927      6.50395e+6 
        970.074      6.22752e+6 
         970.22      5.93642e+6 
        970.367      5.63115e+6 
        970.514      5.30873e+6 
         970.66      4.96343e+6 
         970.74      4.76476e+6 
        970.807      4.59031e+6 
        970.874      4.40941e+6 
        971.008       4.0279e+6 
        971.144      3.60595e+6 
        971.209      3.38585e+6 
        971.278       3.1332e+6 
        971.348      2.86571e+6 
        971.389      2.69726e+6 
        971.467      2.36709e+6 
        971.487      2.27732e+6 
        971.585      1.82993e+6 
        971.644      1.55722e+6 
        971.703       1.2936e+6 
        971.732        1.177e+6 
        971.762      1.07669e+6 
        971.778      1.03879e+6 
        971.792      1.01924e+6 
        971.806      1.01292e+6 
        971.821      1.01272e+6 
        971.827      1.01278e+6 
        971.833      1.01285e+6 
        971.836      1.01288e+6 
        971.839      1.01291e+6 
        971.851      1.01304e+6 
        971.866      1.01323e+6 
         971.88      1.01597e+6 
         971.91       1.0621e+6 
        971.969      1.27186e+6 
        972.037      1.57709e+6 
        972.087      1.81043e+6 
        972.137      2.04506e+6 
         972.15      2.10524e+6 
        972.237      2.49617e+6 
        972.324      2.86135e+6 
        972.499      3.50705e+6 
        972.548      3.66916e+6 
        972.673      4.05382e+6 
        972.798      4.40002e+6 
        972.923      4.71723e+6 
        973.048      5.00811e+6 
        973.173      5.27835e+6 
        973.298      5.53147e+6 
        973.351      5.63489e+6 
        973.423      5.77107e+6 
        973.548      5.99956e+6 
        973.746      6.34105e+6 
        973.943       6.6653e+6 
         974.14      6.96702e+6 
        974.337      7.26006e+6 
        974.731      7.82762e+6 
        975.126      8.35783e+6 
          975.4      8.71594e+6 
         975.52      8.86058e+6 
         975.64      9.00541e+6 
         975.88      9.29896e+6 
        976.361      9.87475e+6 
        976.601      1.01751e+7 
        976.841       1.0493e+7 
        977.081      1.08365e+7 
        977.321      1.12034e+7 
        977.802      1.18981e+7 
        978.042      1.22741e+7 
        978.282      1.26436e+7 
        978.522      1.30451e+7 
        978.762      1.34953e+7 
        978.883      1.37401e+7 
        979.003      1.40001e+7 
        979.123      1.42788e+7 
        979.181      1.44228e+7 
        979.243       1.4583e+7 
        979.305       1.4749e+7 
        979.429      1.50386e+7 
        979.553      1.53466e+7 
        979.677      1.56807e+7 
        979.801      1.60387e+7 
        979.925      1.64198e+7 
        980.049      1.67488e+7 
        980.173      1.70374e+7 
        980.298      1.73376e+7 
        980.422      1.76559e+7 
        980.546      1.79888e+7 
        980.794      1.85869e+7 
        981.042      1.91217e+7 
         981.29      1.96859e+7 
        981.787      2.07752e+7 
        982.779       2.2872e+7 
        983.621      2.47261e+7 
        983.772      2.50798e+7 
        983.923      2.54396e+7 
        984.226      2.61322e+7 
         984.83      2.74854e+7 
        985.434      2.87492e+7 
        985.459       2.8803e+7 
        986.039      3.00542e+7 
        986.329      3.06539e+7 
        986.618      3.12501e+7 
        986.907      3.17295e+7 
        987.198      3.20813e+7 
        987.487      3.24194e+7 
        987.777       3.2726e+7 
        988.066      3.30181e+7 
        988.357      3.34693e+7 
         988.56      3.38167e+7 
