# Koester WD models
# teff = 16000 K (value for the effective temperature for the model. Temperatures are given in K)
# logg = 9.25 log(cm/s2) (value for Log(G) for the model.)
#
# column 1: WAVELENGTH (ANGSTROM), Wavelength in Angstrom
# column 2: FLUX (ERG/CM2/S/A), Flux in erg/cm2/s/A
         899.23          664393 
        904.235          702036 
         908.45          734976 
        909.241          741281 
        910.032          747621 
        911.193          756973 
        911.613          760353 
        911.824          762031 
        911.929          762867 
        912.034          763696 
        912.139          772414 
        912.244          781138 
        912.349          789847 
        912.454          798552 
        912.559          807229 
        912.664          815831 
         912.77          824319 
        912.875          832579 
        912.886          833424 
        913.085          847636 
        913.284          860074 
        913.339          862798 
        913.435          867538 
        913.483          870143 
        913.531          872156 
        913.625          874425 
        913.724          877255 
        913.822          880859 
        913.871          881113 
        914.018          876891 
        914.165          877783 
        914.312          875125 
        914.343          873196 
        914.459          860259 
        914.575          852100 
        914.692          862653 
        914.808          865892 
        914.924          832362 
        915.009          803195 
         915.04          797584 
        915.071          795885 
        915.133          806362 
        915.257          857645 
        915.381          873730 
        915.505          800808 
        915.609          733672 
        915.617          730791 
         915.63          725909 
        915.643          722029 
        915.677          719142 
        915.745          741246 
        915.881          861126 
        916.017          942003 
        916.153          895935 
        916.289          746933 
        916.379          666109 
        916.421          653445 
        916.425          653275 
        916.429          653294 
        916.479          669194 
         916.58          772992 
         916.68          918061 
         916.78      1.03234e+6 
         916.88      1.08554e+6 
         916.98      1.05541e+6 
         917.08          954542 
         917.18          801851 
        917.182          798580 
         917.28          649301 
        917.378          591436 
        917.575          813528 
        917.771      1.14895e+6 
        917.967      1.30673e+6 
        918.163      1.19367e+6 
        918.359          864984 
         918.51          603311 
        918.556          562870 
        918.602          550727 
        918.694          604983 
        918.878          951601 
        919.062      1.31896e+6 
        919.201      1.51976e+6 
        919.241      1.55961e+6 
        919.246      1.56396e+6 
        919.251      1.56818e+6 
        919.301      1.60162e+6 
        919.402      1.62663e+6 
        919.502      1.60378e+6 
        919.602      1.52292e+6 
        919.702        1.389e+6 
        919.802      1.21819e+6 
        919.902      1.01677e+6 
        920.002          807053 
        920.102          609284 
        920.165          543986 
        920.189          534017 
        920.202          531931 
        920.215          531228 
        920.265          544652 
        920.366          682175 
        920.466          890626 
        920.566       1.1099e+6 
        920.666      1.33105e+6 
        920.866      1.70787e+6 
        921.066      1.95756e+6 
        921.266      2.06288e+6 
        921.467      2.02571e+6 
        921.667        1.835e+6 
        921.867        1.507e+6 
        922.067      1.09288e+6 
         922.13          950643 
        922.267          651079 
        922.405          530084 
        922.542          653253 
        922.548          665308 
        922.679          957931 
         922.81      1.26223e+6 
        922.941      1.54701e+6 
        923.072      1.81988e+6 
        923.203      2.05712e+6 
        923.335      2.27073e+6 
        923.466       2.4359e+6 
        923.597      2.55947e+6 
        923.728      2.64143e+6 
        923.859      2.68695e+6 
         923.99      2.69857e+6 
        924.121      2.67358e+6 
        924.252      2.60769e+6 
        924.384      2.49863e+6 
        924.515      2.34512e+6 
        924.646      2.14684e+6 
        924.777      1.92178e+6 
        924.908      1.66125e+6 
        925.039      1.38299e+6 
         925.17      1.07622e+6 
        925.302          757573 
        925.382          592815 
        925.433          549364 
        925.484          543976 
        925.586          594261 
        925.688          814690 
         925.79      1.06747e+6 
        925.892      1.31528e+6 
        925.994      1.54643e+6 
        926.096       1.7737e+6 
        926.198      1.98944e+6 
        926.232      2.05689e+6 
        926.301      2.18994e+6 
        926.369      2.32341e+6 
        926.505      2.56929e+6 
        926.641      2.78559e+6 
        926.777      2.97213e+6 
        926.913      3.13185e+6 
        927.049      3.26044e+6 
        927.185      3.36625e+6 
        927.322      3.44959e+6 
        927.458      3.51309e+6 
        927.594      3.55412e+6 
         927.73      3.57774e+6 
        927.866      3.58223e+6 
        928.002      3.56696e+6 
        928.006      3.56618e+6 
        928.094      3.53882e+6 
        928.138      3.52003e+6 
        928.182      3.49823e+6 
        928.359      3.37988e+6 
        928.535      3.21171e+6 
        928.711      2.99493e+6 
        928.887      2.75302e+6 
        928.985      2.60554e+6 
        929.037      2.52236e+6 
        929.063      2.47908e+6 
        929.089      2.43459e+6 
        929.125      2.37067e+6 
        929.193      2.24254e+6 
        929.261      2.11261e+6 
        929.398      1.83355e+6 
        929.493      1.62374e+6 
        929.525      1.55125e+6 
        929.534      1.53102e+6 
        929.543      1.51057e+6 
        929.593      1.39336e+6 
        929.617      1.33483e+6 
        929.655      1.24117e+6 
        929.693      1.14502e+6 
        929.769          949474 
        929.827          796884 
        929.883          662640 
         929.91          613082 
        929.939          581421 
        929.954          575735 
        929.968          573303 
        929.982          572690 
        929.996          572593 
         930.01          572624 
        930.024          572785 
        930.038          573074 
        930.052          573875 
        930.081          582401 
        930.137          664613 
        930.201          821263 
        930.247          943885 
        930.249          949279 
        930.251          954686 
        930.301      1.08633e+6 
        930.326      1.14799e+6 
        930.402      1.34179e+6 
        930.478      1.52684e+6 
         930.63      1.87634e+6 
        930.633      1.88302e+6 
        930.782      2.20046e+6 
        930.931      2.50019e+6 
         931.08      2.76873e+6 
        931.229      3.01889e+6 
        931.379      3.27326e+6 
        931.516      3.49408e+6 
        931.528       3.5129e+6 
        931.677      3.73184e+6 
        931.838       3.9482e+6 
        931.999      4.13936e+6 
         932.16      4.29148e+6 
        932.321      4.42635e+6 
        932.483      4.54309e+6 
        932.644      4.64598e+6 
        932.805      4.72866e+6 
        932.966      4.79341e+6 
        933.127      4.84619e+6 
        933.173      4.85907e+6 
        933.265      4.88185e+6 
        933.288       4.8869e+6 
        933.403      4.90808e+6 
        933.432      4.91201e+6 
        933.542        4.923e+6 
        933.652      4.92699e+6 
        933.762      4.92363e+6 
        933.872      4.91248e+6 
        933.982       4.8908e+6 
        934.092      4.85715e+6 
        934.202      4.81327e+6 
        934.312       4.7586e+6 
        934.413      4.70117e+6 
        934.422      4.69599e+6 
        934.533      4.62678e+6 
        934.652      4.53982e+6 
        934.771      4.43904e+6 
         934.89      4.32588e+6 
        935.009      4.19861e+6 
        935.026      4.17914e+6 
        935.128      4.06415e+6 
         935.23      3.95335e+6 
        935.332      3.83494e+6 
        935.434      3.71123e+6 
        935.537      3.58107e+6 
        935.639       3.4429e+6 
        935.741      3.29773e+6 
        935.843      3.14373e+6 
        935.945      2.97656e+6 
         935.95      2.96804e+6 
        936.047      2.79929e+6 
        936.144      2.62004e+6 
        936.338      2.23372e+6 
        936.464      1.96034e+6 
        936.532      1.80286e+6 
        936.601      1.63776e+6 
        936.645      1.52746e+6 
        936.714      1.34833e+6 
        936.737      1.28728e+6 
        936.829      1.03785e+6 
        936.887          869916 
        936.944          716861 
        936.973          657645 
        937.001          626694 
        937.015          622950 
        937.029          621869 
        937.043          621844 
        937.058          621929 
        937.072          622029 
        937.086          622133 
        937.101          622265 
        937.115          622494 
        937.143          627734 
         937.15          632651 
        937.186          687541 
        937.199          716582 
         937.25          853615 
        937.314      1.04058e+6 
        937.341      1.11705e+6 
        937.442      1.39081e+6 
        937.543      1.65424e+6 
        937.645      1.90298e+6 
        937.746      2.13634e+6 
        937.847       2.3559e+6 
        937.896      2.45914e+6 
        937.948      2.56764e+6 
            938      2.67305e+6 
        938.104      2.87617e+6 
        938.208      3.06919e+6 
        938.312      3.25265e+6 
        938.416      3.42456e+6 
         938.52      3.58958e+6 
        938.543      3.62549e+6 
        938.556      3.64569e+6 
        938.624      3.74955e+6 
        938.729      3.90387e+6 
        938.914      4.17169e+6 
        939.093      4.42625e+6 
        939.271      4.69382e+6 
        939.449      4.94286e+6 
        939.628      5.17763e+6 
        939.807      5.40216e+6 
        939.986      5.62769e+6 
        940.164      5.83928e+6 
        940.343        6.029e+6 
        940.521       6.2038e+6 
         940.58      6.25881e+6 
         940.66      6.33207e+6 
          940.7      6.36779e+6 
         940.74      6.40272e+6 
        940.901      6.53253e+6 
        941.061      6.65389e+6 
        941.221      6.76699e+6 
        941.381      6.86953e+6 
        941.541      6.95677e+6 
        941.861      7.11398e+6 
        942.182      7.24816e+6 
        942.502      7.35324e+6 
        942.597      7.37872e+6 
        942.822      7.42877e+6 
        943.048      7.46367e+6 
        943.273      7.48082e+6 
        943.498      7.47353e+6 
        943.723      7.44444e+6 
        943.948       7.3922e+6 
        944.174      7.31162e+6 
        944.399      7.20132e+6 
        944.624      7.06224e+6 
        944.849      6.90318e+6 
        945.074      6.72926e+6 
        945.258      6.57004e+6 
        945.292      6.53866e+6 
          945.3      6.53121e+6 
        945.308      6.52374e+6 
        945.358      6.47624e+6 
        945.458      6.38193e+6 
        945.658      6.17873e+6 
        945.858      5.95593e+6 
        946.058      5.73925e+6 
        946.459      5.28875e+6 
         946.56      5.17361e+6 
         946.71      4.99739e+6 
        946.859      4.81688e+6 
        947.009       4.6286e+6 
        947.158      4.43269e+6 
        947.307      4.22849e+6 
        947.458      4.01439e+6 
        947.607      3.78713e+6 
        947.757       3.5456e+6 
        947.906      3.27926e+6 
        947.975      3.15014e+6 
        948.029      3.04483e+6 
        948.056       2.9907e+6 
        948.083      2.93546e+6 
        948.191      2.70651e+6 
        948.299      2.46693e+6 
        948.407      2.20989e+6 
        948.425      2.16521e+6 
        948.485      2.01224e+6 
        948.515      1.93313e+6 
        948.546      1.85315e+6 
        948.555      1.82882e+6 
        948.666      1.51595e+6 
        948.777      1.18691e+6 
        948.843          973485 
        948.883          847919 
        948.888          833493 
        948.893          819469 
        948.922          750181 
        948.935          728397 
        948.943          720103 
        948.951          715272 
        948.966          713160 
         948.98          713032 
        948.994          713142 
        949.009          713261 
        949.023          713374 
        949.037          713487 
        949.052          713610 
        949.066          713726 
        949.095          716437 
        949.153          821844 
         949.23      1.06523e+6 
        949.258      1.15857e+6 
        949.269      1.19319e+6 
         949.28       1.2276e+6 
         949.33      1.37831e+6 
         949.36       1.4682e+6 
         949.43      1.67296e+6 
          949.5      1.87134e+6 
         949.64      2.24246e+6 
        949.781      2.58208e+6 
        949.795      2.61437e+6 
        949.879      2.80518e+6 
        949.921      2.89842e+6 
        949.963      2.98987e+6 
        950.131       3.3342e+6 
        950.299      3.65072e+6 
        950.467      3.93915e+6 
        950.635      4.21096e+6 
        950.719      4.34168e+6 
        950.804      4.46961e+6 
        950.888      4.59502e+6 
        951.056         4.84e+6 
        951.224      5.07741e+6 
        951.392      5.30873e+6 
        951.728      5.75998e+6 
        952.065       6.2306e+6 
        952.401      6.71946e+6 
        952.738      7.20317e+6 
        953.413      8.18784e+6 
         953.75      8.70165e+6 
        954.087      9.20264e+6 
        954.425      9.68126e+6 
        954.593      9.91496e+6 
        954.762      1.01451e+7 
         954.93      1.03559e+7 
        955.099      1.05524e+7 
        955.267      1.07453e+7 
        955.437      1.09335e+7 
        955.534      1.10395e+7 
        955.774      1.12965e+7 
        956.014      1.15309e+7 
        956.254      1.17865e+7 
        956.735       1.2271e+7 
        957.215      1.27185e+7 
        957.695      1.31309e+7 
        958.024      1.33879e+7 
        958.176      1.35005e+7 
         958.34      1.36186e+7 
        958.656       1.3833e+7 
        958.973      1.40284e+7 
        959.289      1.42035e+7 
        959.413      1.42667e+7 
        959.605      1.43573e+7 
        959.921      1.44913e+7 
         960.43       1.4659e+7 
        960.684      1.47389e+7 
        960.938      1.47994e+7 
        961.192      1.48398e+7 
        961.447      1.48602e+7 
        961.701      1.48582e+7 
        961.955      1.48349e+7 
        962.209      1.47891e+7 
        962.463      1.47202e+7 
        962.718      1.46295e+7 
        962.972      1.45154e+7 
        963.226       1.4378e+7 
        963.238       1.4371e+7 
         963.48      1.42199e+7 
        963.486      1.42158e+7 
        963.735      1.40404e+7 
        963.983      1.38474e+7 
        964.231      1.36326e+7 
        964.727      1.31596e+7 
        965.224      1.26253e+7 
         965.72      1.20407e+7 
        966.217      1.14231e+7 
        966.713      1.07884e+7 
        967.209      1.01375e+7 
        967.379      9.91361e+6 
        967.706      9.48211e+6 
        968.032      9.05055e+6 
        968.072      8.99623e+6 
        968.378      8.57997e+6 
        968.685      8.15994e+6 
        968.991      7.72646e+6 
        969.297      7.27737e+6 
        969.603      6.80378e+6 
        969.858       6.3846e+6 
        969.893      6.32648e+6 
         969.91      6.29726e+6 
        969.927      6.26795e+6 
        969.995      6.14935e+6 
        970.131      5.90415e+6 
        970.267      5.64827e+6 
        970.403      5.37998e+6 
        970.476         5.23e+6 
        970.539      5.09764e+6 
        970.675       4.7958e+6 
        970.874       4.3103e+6 
        971.073      3.75876e+6 
        971.198      3.36619e+6 
        971.273      3.10718e+6 
        971.348      2.82719e+6 
        971.411      2.57645e+6 
        971.467      2.34213e+6 
        971.498       2.2058e+6 
        971.585      1.80678e+6 
        971.644      1.52531e+6 
        971.703      1.24491e+6 
        971.732      1.11533e+6 
        971.762          999579 
        971.778          953222 
        971.792          926833 
        971.806          916666 
        971.821          915944 
        971.827          916000 
        971.833          916060 
        971.836          916088 
        971.839          916120 
        971.851          916236 
        971.866          916469 
         971.88          921407 
         971.91          982253 
        971.969      1.22039e+6 
        972.037      1.54559e+6 
        972.087       1.7864e+6 
        972.137      2.02275e+6 
         972.15      2.08273e+6 
        972.237      2.46826e+6 
        972.324      2.82362e+6 
        972.499      3.44689e+6 
        972.548      3.60438e+6 
        972.673      3.97232e+6 
        972.798      4.30326e+6 
        972.923      4.60196e+6 
        973.048      4.87566e+6 
        973.173      5.12852e+6 
        973.298      5.36326e+6 
        973.423      5.58773e+6 
        973.548      5.80136e+6 
        973.601      5.88936e+6 
        973.673      6.00622e+6 
        973.746      6.12033e+6 
         973.89       6.3435e+6 
        974.034      6.55657e+6 
        974.178       6.7619e+6 
        974.466       7.1622e+6 
        974.754       7.5462e+6 
        975.043      7.91185e+6 
        975.331      8.27785e+6 
        975.556      8.53404e+6 
        975.598      8.58183e+6 
        975.619      8.60573e+6 
         975.64      8.62967e+6 
        975.724      8.72593e+6 
        975.892      8.92071e+6 
        976.228      9.29867e+6 
        976.565      9.69012e+6 
        976.901       1.0112e+7 
        977.237      1.05832e+7 
        977.574       1.1036e+7 
         977.91      1.15219e+7 
        978.246      1.20048e+7 
        978.414      1.22604e+7 
        978.582      1.25348e+7 
         978.75      1.28327e+7 
        978.919      1.31543e+7 
        979.087      1.35059e+7 
        979.105      1.35456e+7 
        979.205      1.37749e+7 
        979.255      1.38952e+7 
        979.305      1.40195e+7 
        979.505      1.44627e+7 
        979.705      1.49614e+7 
        979.905      1.55181e+7 
        980.105      1.60054e+7 
        980.306      1.64563e+7 
        980.506      1.69438e+7 
        980.706      1.74299e+7 
        980.906      1.78309e+7 
        981.106      1.82466e+7 
        981.506      1.90989e+7 
        982.292      2.07154e+7 
        982.307      2.07451e+7 
        982.699      2.15336e+7 
        983.108      2.23714e+7 
        983.515      2.32413e+7 
        983.923      2.41685e+7 
        984.332        2.507e+7 
        984.739      2.59731e+7 
        985.147      2.68014e+7 
        985.555      2.76433e+7 
        985.963      2.85046e+7 
        986.122      2.88381e+7 
         986.37      2.93387e+7 
        986.618      2.98421e+7 
        986.866      3.02738e+7 
        987.115      3.05801e+7 
        987.363      3.08757e+7 
        987.611      3.11523e+7 
        987.859      3.14104e+7 
        987.983      3.15356e+7 
        988.107      3.16575e+7 
        988.231      3.18554e+7 
        988.356      3.20709e+7 
         988.48      3.22855e+7 
        988.604      3.24995e+7 
