# Koester WD models
# teff = 16000 K (value for the effective temperature for the model. Temperatures are given in K)
# logg = 8.75 log(cm/s2) (value for Log(G) for the model.)
#
# column 1: WAVELENGTH (ANGSTROM), Wavelength in Angstrom
# column 2: FLUX (ERG/CM2/S/A), Flux in erg/cm2/s/A
         899.23          579231 
        904.235          612447 
         908.45          641535 
        909.241          647105 
        910.032          652707 
        911.193          660997 
        911.613          663991 
        911.824          665477 
        911.929          666216 
        912.034          666951 
        912.139          679285 
        912.244          691694 
        912.349          704160 
        912.454          716651 
        912.559          729142 
        912.664          741551 
         912.77          753784 
        912.875          765587 
        912.886          766784 
         912.98          776366 
        913.085          784845 
        913.284          796070 
        913.339          797195 
        913.435          798568 
        913.483          800443 
        913.531          802209 
        913.625          802133 
        913.724          797434 
        913.822          796120 
        913.871          797663 
        914.018          790503 
        914.165          762373 
        914.312          793607 
        914.343          796183 
        914.459          749443 
        914.575          700735 
        914.692          758820 
        914.808          809350 
        914.924          737662 
        915.009          650448 
         915.04          630615 
        915.071          624615 
        915.133          654497 
        915.257          797079 
        915.381          852163 
        915.505          732035 
        915.609          592055 
        915.617          585216 
         915.63          573287 
        915.643          564940 
        915.677          555468 
        915.745          595897 
        915.881          814232 
        916.017          951862 
        916.153          889096 
        916.289          665113 
        916.379          527228 
        916.421          505834 
        916.425          505445 
        916.429          505338 
        916.479          528447 
         916.58          693252 
         916.68          897547 
         916.78      1.05396e+6 
         916.88      1.12535e+6 
         916.98      1.09411e+6 
         917.08          970768 
         917.18          775119 
        917.182          770504 
         917.28          558302 
        917.378          470981 
        917.575          782109 
        917.771       1.1904e+6 
        917.967      1.37446e+6 
        918.163      1.25374e+6 
        918.359          877780 
         918.51          526452 
        918.556          467482 
        918.602          452264 
        918.694          527769 
        918.878          973909 
        919.062      1.38488e+6 
        919.201       1.6032e+6 
        919.241      1.64678e+6 
        919.246      1.65152e+6 
        919.251      1.65613e+6 
        919.301      1.69239e+6 
        919.402      1.72072e+6 
        919.502      1.69758e+6 
        919.602      1.61338e+6 
        919.702      1.47564e+6 
        919.802      1.28802e+6 
        919.902      1.06869e+6 
        920.002          823301 
        920.102          556521 
        920.165          460724 
        920.189          449948 
        920.202          447536 
        920.215          446822 
        920.265          461293 
        920.366          657281 
        920.466          922120 
        920.566      1.17004e+6 
        920.666      1.40729e+6 
        920.766      1.61533e+6 
        920.866      1.79861e+6 
        920.966      1.94329e+6 
        921.066      2.04934e+6 
        921.166      2.11951e+6 
        921.266      2.15244e+6 
        921.367      2.15285e+6 
        921.467      2.11712e+6 
        921.567      2.04319e+6 
        921.667      1.93184e+6 
        921.767      1.78222e+6 
        921.867      1.60101e+6 
        921.967      1.39607e+6 
        922.067      1.16036e+6 
        922.167          902847 
        922.267          625582 
        922.331          483271 
        922.368          456429 
        922.405          452317 
        922.479          484145 
        922.627          869499 
         922.74      1.16717e+6 
        922.775      1.25335e+6 
         922.81      1.34121e+6 
         922.88      1.50704e+6 
         923.02       1.8087e+6 
         923.16      2.07915e+6 
        923.301      2.30789e+6 
        923.441      2.49098e+6 
        923.581      2.62555e+6 
        923.721      2.71483e+6 
        923.861      2.76425e+6 
        924.001      2.77623e+6 
        924.141      2.74656e+6 
        924.282      2.67091e+6 
        924.422      2.54412e+6 
        924.562      2.36308e+6 
        924.702      2.14737e+6 
        924.842      1.89481e+6 
        924.982      1.60274e+6 
        925.122      1.27084e+6 
        925.262          886966 
        925.322          709780 
        925.403          500842 
        925.484          467312 
        925.646          712485 
        925.808      1.18448e+6 
         925.97      1.59084e+6 
        926.132       1.9493e+6 
         926.22      2.12959e+6 
        926.295      2.27036e+6 
        926.369      2.40848e+6 
        926.517      2.67167e+6 
        926.665      2.89965e+6 
        926.813      3.09074e+6 
        926.961      3.24787e+6 
        927.109      3.36873e+6 
        927.257      3.46568e+6 
        927.406      3.54045e+6 
        927.554      3.59125e+6 
        927.702      3.62141e+6 
         927.85       3.6302e+6 
        927.998      3.61767e+6 
        928.038      3.60931e+6 
         928.11      3.58405e+6 
        928.146       3.5685e+6 
        928.182      3.55094e+6 
        928.327       3.4594e+6 
        928.471      3.33351e+6 
        928.615      3.17452e+6 
        928.717      3.04681e+6 
        928.759      2.98961e+6 
        928.903      2.80167e+6 
        928.917      2.78178e+6 
        929.089      2.51766e+6 
        929.261      2.20841e+6 
        929.325      2.08477e+6 
        929.434      1.85431e+6 
        929.543      1.60775e+6 
        929.652      1.33245e+6 
        929.719      1.14792e+6 
        929.753      1.04818e+6 
        929.755      1.04194e+6 
        929.761      1.02325e+6 
        929.769          998430 
        929.819          841925 
        929.827          816129 
        929.883          636374 
         929.91          559031 
        929.939          506663 
        929.954          496727 
        929.968          493708 
        929.982          493145 
        929.996          493108 
         930.01          493180 
        930.024          493274 
        930.038          493478 
        930.052          494207 
        930.081          507527 
        930.137          638274 
        930.201          845610 
        930.247          991235 
        930.249          997547 
        930.251      1.00387e+6 
        930.301      1.15541e+6 
        930.326      1.22343e+6 
        930.402      1.43129e+6 
        930.478      1.62476e+6 
         930.63      1.97662e+6 
        930.633      1.98326e+6 
        930.782      2.29574e+6 
        930.931      2.58359e+6 
         931.08      2.84346e+6 
        931.229      3.08316e+6 
        931.379      3.32842e+6 
        931.516      3.54711e+6 
        931.528      3.56608e+6 
        931.677      3.78669e+6 
        931.838      3.99934e+6 
        931.999      4.18529e+6 
         932.16      4.32701e+6 
        932.321      4.45296e+6 
        932.483      4.56065e+6 
        932.644      4.65559e+6 
        932.805      4.73385e+6 
        932.966       4.7964e+6 
        933.127      4.84745e+6 
        933.173      4.85995e+6 
        933.265      4.88222e+6 
        933.288      4.88719e+6 
        933.403       4.9082e+6 
        933.432      4.91219e+6 
        933.542      4.92398e+6 
        933.652      4.92935e+6 
        933.762      4.92818e+6 
        933.872      4.91992e+6 
        933.982      4.90073e+6 
        934.092      4.86862e+6 
        934.202      4.82633e+6 
        934.312       4.7734e+6 
        934.413      4.71685e+6 
        934.422       4.7116e+6 
        934.533       4.6417e+6 
        934.652      4.55317e+6 
        934.771      4.45151e+6 
         934.89      4.33829e+6 
        935.009      4.21137e+6 
        935.026      4.19217e+6 
        935.128       4.0808e+6 
         935.23      3.97679e+6 
        935.332      3.86551e+6 
        935.434      3.74732e+6 
        935.537      3.62147e+6 
        935.639      3.48748e+6 
        935.741       3.3479e+6 
        935.843      3.19918e+6 
        935.945      3.03755e+6 
         935.95      3.02937e+6 
        936.047      2.86638e+6 
        936.144      2.69323e+6 
        936.338      2.32641e+6 
        936.464      2.06051e+6 
        936.532      1.90375e+6 
        936.601      1.73767e+6 
        936.645      1.62397e+6 
        936.714      1.43596e+6 
        936.737      1.37081e+6 
        936.829      1.09053e+6 
        936.887          893714 
        936.944          691929 
        936.973          597157 
        937.001          544454 
        937.015          537702 
        937.029          536276 
        937.043          536257 
        937.058          536342 
        937.072          536430 
        937.086          536518 
        937.101          536625 
        937.115          536823 
        937.143          545368 
         937.15          553244 
        937.186          645685 
        937.199          690635 
         937.25          872957 
        937.314      1.09305e+6 
        937.341      1.18257e+6 
        937.442      1.48135e+6 
        937.543      1.75502e+6 
        937.645      2.00517e+6 
        937.746      2.23379e+6 
        937.847      2.44577e+6 
        937.896      2.54421e+6 
        937.948      2.64624e+6 
            938      2.74637e+6 
        938.104       2.9425e+6 
        938.208      3.12867e+6 
        938.312      3.30618e+6 
        938.416      3.47184e+6 
         938.52      3.63014e+6 
        938.543      3.66473e+6 
        938.624      3.78549e+6 
        938.729      3.93412e+6 
        938.914      4.18686e+6 
        938.927      4.20411e+6 
        939.099      4.43832e+6 
        939.271      4.69432e+6 
        939.443      4.93638e+6 
        939.615      5.16553e+6 
        939.788      5.38133e+6 
         939.96      5.59744e+6 
        940.132      5.80142e+6 
        940.304      5.98486e+6 
        940.476      6.15136e+6 
        940.556      6.22632e+6 
        940.648      6.31011e+6 
         940.74      6.39122e+6 
        940.925      6.54359e+6 
        941.109      6.68613e+6 
        941.293      6.81848e+6 
        941.477       6.9306e+6 
        941.661      7.03048e+6 
        941.845      7.12234e+6 
         942.03      7.20625e+6 
        942.214      7.28234e+6 
        942.398      7.34602e+6 
        942.485      7.37219e+6 
        942.582      7.39861e+6 
        942.766      7.44033e+6 
        943.048       7.4818e+6 
        943.329      7.49483e+6 
        943.469      7.48726e+6 
         943.61      7.47071e+6 
         943.75      7.44473e+6 
        943.891      7.40923e+6 
        944.031      7.36414e+6 
        944.173      7.30257e+6 
        944.313      7.22918e+6 
        944.454      7.14448e+6 
        944.594      7.04854e+6 
        944.725      6.94964e+6 
        944.735      6.94163e+6 
         944.87      6.83975e+6 
        945.016      6.72247e+6 
        945.161      6.59552e+6 
        945.308      6.45905e+6 
        945.454      6.31551e+6 
        945.599      6.16343e+6 
        945.745      6.00189e+6 
         945.89      5.83281e+6 
        946.181       5.5293e+6 
        946.473      5.21863e+6 
        946.764      4.89865e+6 
        946.952       4.6827e+6 
        947.055      4.55927e+6 
        947.158      4.43367e+6 
        947.261      4.30335e+6 
        947.364      4.16823e+6 
        947.468      4.02736e+6 
        947.571      3.88037e+6 
        947.674       3.7259e+6 
        947.777      3.56351e+6 
         947.88      3.38789e+6 
        947.883      3.38265e+6 
        947.983      3.20282e+6 
        948.083      3.01154e+6 
        948.183      2.81198e+6 
        948.283      2.60113e+6 
        948.383      2.37337e+6 
        948.421      2.28178e+6 
        948.483      2.12464e+6 
        948.546       1.9595e+6 
        948.563      1.91236e+6 
         948.67      1.59676e+6 
        948.777      1.24379e+6 
        948.843          994829 
        948.875          863099 
        948.884          827241 
        948.893          792618 
        948.922          679960 
        948.935          642321 
        948.943          627863 
        948.951          620285 
        948.966          616255 
         948.98          616051 
        948.994          616148 
        949.009          616255 
        949.023          616355 
        949.037          616453 
        949.052          616560 
        949.066          616660 
        949.095          621306 
        949.153          794920 
         949.23      1.10354e+6 
        949.258      1.20997e+6 
        949.269      1.25033e+6 
         949.28      1.29073e+6 
         949.33       1.4605e+6 
         949.36      1.55792e+6 
         949.43      1.77415e+6 
          949.5      1.97861e+6 
         949.64      2.34973e+6 
        949.781      2.67988e+6 
        949.795      2.71081e+6 
        949.879      2.89256e+6 
        949.921      2.98035e+6 
        949.963      3.06722e+6 
        950.131      3.39798e+6 
        950.299      3.70152e+6 
        950.467      3.97688e+6 
        950.635      4.23418e+6 
        950.719      4.35742e+6 
        950.804      4.47705e+6 
        950.888       4.5942e+6 
        951.056      4.82165e+6 
        951.224      5.04273e+6 
        951.392       5.2589e+6 
        951.728      5.68283e+6 
        951.896      5.90387e+6 
        952.065      6.12482e+6 
        952.233       6.3588e+6 
        952.401      6.61054e+6 
        952.688      7.03151e+6 
        952.737      7.10374e+6 
        952.788      7.17866e+6 
        952.888      7.32541e+6 
        953.089      7.61886e+6 
        953.489      8.23305e+6 
        953.889      8.87754e+6 
         954.29      9.50178e+6 
         954.69      1.01169e+7 
        954.967      1.05195e+7 
         955.09      1.06874e+7 
        955.228       1.0874e+7 
        955.491      1.12188e+7 
        955.752      1.15529e+7 
        956.014      1.18467e+7 
        956.537      1.25028e+7 
        957.061      1.31064e+7 
        957.584      1.36555e+7 
        958.108      1.41383e+7 
        958.631      1.45596e+7 
        959.021      1.48283e+7 
        959.155      1.49114e+7 
        959.289      1.49891e+7 
        959.557      1.51224e+7 
        959.757       1.5209e+7 
        959.825      1.52365e+7 
        960.093      1.53319e+7 
         960.43      1.54197e+7 
        960.766      1.55057e+7 
        961.102      1.55492e+7 
        961.439        1.555e+7 
        961.775      1.55037e+7 
        962.111      1.54129e+7 
        962.447      1.52745e+7 
        962.784      1.50935e+7 
         963.12      1.48623e+7 
        963.456      1.45921e+7 
        963.793      1.42829e+7 
        964.027      1.40492e+7 
        964.129        1.394e+7 
        964.231      1.38266e+7 
        964.435      1.35976e+7 
        964.843       1.3111e+7 
        965.252      1.25948e+7 
         965.66      1.20526e+7 
        965.738      1.19478e+7 
        966.068      1.15006e+7 
        966.885      1.03903e+7 
        968.032      8.85863e+6 
        969.061      7.47272e+6 
         969.14      7.36283e+6 
        969.179      7.30826e+6 
        969.297      7.14172e+6 
        969.337      7.08527e+6 
        969.533      6.79762e+6 
         969.73      6.50134e+6 
        969.927      6.19415e+6 
        970.123      5.87129e+6 
         970.32      5.52716e+6 
        970.516      5.15491e+6 
        970.552      5.08379e+6 
        970.713      4.74151e+6 
        970.874      4.36549e+6 
        971.035      3.94747e+6 
        971.045      3.91973e+6 
        971.197      3.47083e+6 
        971.348      2.94967e+6 
        971.413      2.69467e+6 
        971.467      2.46738e+6 
        971.499      2.32452e+6 
        971.585      1.90898e+6 
        971.644      1.59699e+6 
        971.703      1.26798e+6 
        971.732      1.10253e+6 
        971.762          944008 
        971.778          872028 
        971.792          824370 
        971.806          798546 
        971.821          794088 
        971.827          794138 
        971.833          794188 
        971.836          794213 
        971.839          794242 
        971.851          794342 
        971.866          795376 
         971.88          810946 
         971.91          916497 
        971.969      1.23694e+6 
        972.037      1.61975e+6 
        972.087      1.88688e+6 
        972.137      2.13885e+6 
         972.15      2.20121e+6 
        972.237      2.59515e+6 
        972.324      2.94755e+6 
        972.499      3.54818e+6 
        972.548      3.69709e+6 
        972.673      4.04826e+6 
        972.798      4.36289e+6 
        972.923       4.6478e+6 
        973.048       4.9067e+6 
        973.173      5.14514e+6 
        973.298      5.36634e+6 
        973.351      5.45654e+6 
        973.423      5.57589e+6 
        973.548      5.77406e+6 
        973.746      6.06965e+6 
        973.943       6.3507e+6 
         974.14      6.61447e+6 
        974.337      6.87245e+6 
        974.731      7.37809e+6 
        975.126      7.85568e+6 
          975.4      8.17967e+6 
         975.52      8.31124e+6 
         975.64      8.44366e+6 
         975.88      8.71208e+6 
        976.361      9.24187e+6 
        976.601      9.52053e+6 
        976.841      9.81745e+6 
        977.081      1.01382e+7 
        977.321      1.04821e+7 
        977.802      1.11317e+7 
        978.042      1.14842e+7 
        978.282      1.18271e+7 
        978.522         1.22e+7 
        978.762      1.26156e+7 
        978.883      1.28427e+7 
        979.003      1.30856e+7 
        979.123      1.33451e+7 
        979.181      1.34766e+7 
        979.243      1.36224e+7 
        979.305       1.3774e+7 
        979.429      1.40415e+7 
        979.553      1.43273e+7 
        979.677      1.46338e+7 
        979.801      1.49633e+7 
        979.925      1.53196e+7 
        980.049      1.56307e+7 
        980.173      1.59048e+7 
        980.298      1.61894e+7 
        980.422      1.64854e+7 
        980.546      1.67958e+7 
        980.794      1.73607e+7 
        981.042      1.78764e+7 
         981.29      1.84166e+7 
        981.636      1.91463e+7 
        981.787       1.9475e+7 
        982.207       2.0385e+7 
        982.779      2.15993e+7 
        983.066        2.222e+7 
        983.351      2.28596e+7 
        983.637      2.35476e+7 
        983.923      2.42688e+7 
        984.496      2.56405e+7 
        985.067      2.69595e+7 
        985.804      2.86675e+7 
        986.211      2.96318e+7 
        986.415      3.01011e+7 
        986.618      3.05742e+7 
        986.821      3.09955e+7 
        987.026      3.12677e+7 
        987.229      3.15306e+7 
        987.433      3.17876e+7 
         987.84      3.22447e+7 
        988.043      3.24583e+7 
        988.247       3.2775e+7 
        988.451      3.31705e+7 
        988.655      3.35645e+7 
        988.812      3.38679e+7 
        988.858       3.3927e+7 
        989.062      3.41821e+7 
        989.312      3.44862e+7 
