# Koester WD models
# teff = 16750 K (value for the effective temperature for the model. Temperatures are given in K)
# logg = 8.5 log(cm/s2) (value for Log(G) for the model.)
#
# column 1: WAVELENGTH (ANGSTROM), Wavelength in Angstrom
# column 2: FLUX (ERG/CM2/S/A), Flux in erg/cm2/s/A
         899.23      1.09123e+6 
        903.305      1.13863e+6 
        903.771      1.14414e+6 
        904.235      1.14967e+6 
         904.81      1.15652e+6 
        905.165      1.16078e+6 
        907.025      1.18324e+6 
         908.45      1.20066e+6 
        909.241      1.21041e+6 
        910.032       1.2202e+6 
        911.193      1.23472e+6 
        911.613      1.23995e+6 
        911.824      1.24255e+6 
        911.929      1.24384e+6 
        912.034      1.24512e+6 
        912.139      1.26987e+6 
        912.244      1.29469e+6 
        912.349      1.31952e+6 
        912.454      1.34433e+6 
        912.559        1.369e+6 
        912.664      1.39347e+6 
         912.77      1.41747e+6 
        912.875      1.44054e+6 
        912.886      1.44287e+6 
         912.98      1.46145e+6 
        913.085      1.47711e+6 
        913.284      1.49371e+6 
        913.339      1.49529e+6 
        913.435      1.49545e+6 
        913.483      1.49677e+6 
        913.531      1.49967e+6 
        913.625      1.50271e+6 
        913.724      1.49019e+6 
        913.822      1.47988e+6 
        913.871      1.48596e+6 
        914.018      1.48434e+6 
        914.165      1.40761e+6 
        914.312      1.49512e+6 
        914.343      1.50372e+6 
        914.459      1.40408e+6 
        914.575      1.28544e+6 
        914.692      1.42261e+6 
        914.808      1.53689e+6 
        914.924      1.39506e+6 
        915.009      1.20054e+6 
         915.04      1.15401e+6 
        915.071      1.13934e+6 
        915.133      1.20798e+6 
        915.257      1.51238e+6 
        915.381      1.62358e+6 
        915.505      1.39333e+6 
        915.609      1.09255e+6 
        915.617      1.07596e+6 
         915.63      1.04705e+6 
        915.643      1.02706e+6 
        915.677      1.00441e+6 
        915.745      1.09937e+6 
        915.881      1.54901e+6 
        916.017      1.80736e+6 
        916.153      1.69311e+6 
        916.289      1.26322e+6 
        916.379          956650 
        916.421          904084 
        916.425          903092 
        916.429          902781 
        916.479          958770 
         916.58       1.3186e+6 
         916.68      1.70774e+6 
         916.78      1.99141e+6 
         916.88      2.11911e+6 
         916.98      2.06332e+6 
         917.08      1.84166e+6 
         917.18      1.47935e+6 
        917.182      1.47056e+6 
         917.28      1.04267e+6 
        917.378          827876 
        917.575      1.49186e+6 
        917.771      2.23464e+6 
        917.967      2.55861e+6 
        918.163      2.34637e+6 
        918.359      1.67296e+6 
         918.51          975505 
        918.556          825054 
        918.602          781512 
        918.694          977836 
        918.878      1.84745e+6 
        919.062      2.57693e+6 
        919.201      2.95756e+6 
        919.241      3.03334e+6 
        919.246      3.04162e+6 
        919.251      3.04962e+6 
        919.301      3.11233e+6 
        919.402      3.16164e+6 
        919.502      3.12172e+6 
        919.602      2.97576e+6 
        919.702      2.73567e+6 
        919.802      2.40701e+6 
        919.902      2.01823e+6 
        920.002      1.57151e+6 
        920.102      1.04646e+6 
        920.165          803924 
        920.189          770199 
        920.202          762364 
        920.215          760024 
        920.265          804870 
        920.366      1.25478e+6 
        920.466      1.75394e+6 
        920.566       2.1989e+6 
        920.666       2.6168e+6 
        920.766       2.9804e+6 
        920.866      3.29902e+6 
        920.966      3.54852e+6 
        921.066      3.73158e+6 
        921.166      3.85175e+6 
        921.266      3.90842e+6 
        921.367      3.90943e+6 
        921.467      3.84848e+6 
        921.567      3.72156e+6 
        921.667      3.52923e+6 
        921.767      3.27015e+6 
        921.867      2.95479e+6 
        921.967      2.59578e+6 
        922.067      2.18027e+6 
        922.167      1.71795e+6 
        922.267      1.19048e+6 
        922.331          861902 
        922.368          775857 
        922.405          759379 
        922.479          863379 
        922.627      1.65578e+6 
         922.67      1.86539e+6 
         922.74      2.19218e+6 
        922.775      2.34499e+6 
         922.81      2.49961e+6 
         922.95       3.0578e+6 
         923.09      3.55974e+6 
         923.23       3.9886e+6 
        923.371      4.34344e+6 
        923.511      4.61161e+6 
        923.651      4.80032e+6 
        923.791      4.91348e+6 
        923.931      4.96478e+6 
        924.071      4.95307e+6 
        924.211      4.86545e+6 
        924.352      4.69762e+6 
        924.492      4.43935e+6 
        924.632      4.09749e+6 
        924.772      3.69546e+6 
        924.912      3.21636e+6 
        925.052      2.68044e+6 
        925.192      2.04969e+6 
        925.333      1.28949e+6 
        925.434          799708 
        925.462          779985 
        925.473          778229 
        925.484          777902 
        925.534          800635 
        925.634      1.28794e+6 
        925.734      1.85134e+6 
        925.834      2.34451e+6 
        925.934      2.78881e+6 
        926.034      3.18752e+6 
        926.134      3.56684e+6 
        926.232      3.91144e+6 
        926.234      3.91807e+6 
        926.301      4.13393e+6 
        926.335      4.24398e+6 
        926.369      4.35082e+6 
        926.505      4.76344e+6 
        926.641      5.12312e+6 
        926.777       5.4266e+6 
        926.913      5.68242e+6 
        927.049      5.88379e+6 
        927.185      6.04851e+6 
        927.322      6.17989e+6 
        927.458      6.28171e+6 
        927.594      6.34743e+6 
         927.73      6.38686e+6 
        927.866      6.39613e+6 
        928.002      6.37498e+6 
        928.006      6.37388e+6 
        928.094      6.33081e+6 
        928.138      6.30072e+6 
        928.182      6.26569e+6 
        928.359      6.07317e+6 
        928.535      5.79105e+6 
        928.711       5.4419e+6 
        928.887      5.05476e+6 
        928.985      4.81609e+6 
        929.037      4.68009e+6 
        929.063      4.60947e+6 
        929.089      4.53649e+6 
        929.125      4.43134e+6 
        929.193      4.22287e+6 
        929.261        4.006e+6 
        929.398      3.52933e+6 
        929.493      3.16531e+6 
        929.525       3.0376e+6 
        929.534      3.00098e+6 
        929.543      2.96397e+6 
        929.593      2.75017e+6 
        929.617      2.64346e+6 
        929.655      2.46876e+6 
        929.693      2.28491e+6 
        929.769      1.88782e+6 
        929.827         1.55e+6 
        929.883      1.20074e+6 
         929.91      1.02428e+6 
        929.939          876800 
        929.954          837681 
        929.968          822243 
        929.982          817741 
        929.996          816864 
         930.01          816802 
        930.024          817128 
        930.038          818269 
        930.052          823034 
        930.081          878220 
        930.137      1.20411e+6 
        930.201      1.60528e+6 
        930.247      1.87476e+6 
        930.249      1.88611e+6 
        930.251      1.89748e+6 
        930.301      2.16928e+6 
        930.326      2.29009e+6 
        930.402      2.65616e+6 
        930.478      2.99335e+6 
         930.63      3.60435e+6 
        930.633      3.61588e+6 
        930.782      4.15573e+6 
        930.931      4.64808e+6 
         931.08      5.08734e+6 
        931.229      5.48996e+6 
        931.379       5.8985e+6 
        931.516      6.26286e+6 
        931.528      6.29443e+6 
        931.677      6.66124e+6 
        931.838      7.01788e+6 
        931.999      7.33201e+6 
         932.16      7.57278e+6 
        932.321      7.78861e+6 
        932.483      7.97509e+6 
        932.644      8.14062e+6 
        932.805      8.27756e+6 
        932.966      8.38717e+6 
        933.127      8.47652e+6 
        933.173      8.49839e+6 
        933.265      8.53718e+6 
        933.288      8.54582e+6 
        933.403      8.58227e+6 
        933.432      8.58902e+6 
        933.542      8.60856e+6 
        933.652      8.61676e+6 
        933.762      8.61321e+6 
        933.872      8.59716e+6 
        933.982      8.56185e+6 
        934.092      8.50401e+6 
        934.202      8.42855e+6 
        934.312      8.33493e+6 
        934.413      8.23562e+6 
        934.422      8.22648e+6 
        934.533      8.10515e+6 
        934.652      7.95238e+6 
        934.771      7.77789e+6 
         934.89      7.58472e+6 
        935.009      7.36942e+6 
        935.026      7.33684e+6 
        935.128      7.14891e+6 
         935.23      6.97484e+6 
        935.332      6.78967e+6 
        935.434      6.59367e+6 
        935.537      6.38472e+6 
        935.639      6.16267e+6 
        935.741      5.93158e+6 
        935.746      5.91989e+6 
        935.843      5.68336e+6 
        935.945      5.41384e+6 
        936.144      4.83387e+6 
        936.343       4.1885e+6 
        936.484      3.67004e+6 
        936.542      3.43502e+6 
        936.601      3.18862e+6 
        936.605      3.17103e+6 
        936.717       2.6488e+6 
        936.829      2.05087e+6 
        936.894       1.6428e+6 
        936.938      1.34059e+6 
        936.941      1.32015e+6 
        936.944      1.29961e+6 
        936.973      1.08257e+6 
        936.987          990283 
        936.994          953495 
        937.001          927012 
        937.015          895715 
        937.029          885866 
        937.043          884550 
        937.058          884547 
        937.072          884669 
        937.086          884826 
        937.101          885131 
        937.115          886724 
        937.143          928491 
         937.15          955164 
        937.186      1.19666e+6 
        937.199       1.2963e+6 
         937.25        1.649e+6 
        937.314      2.05518e+6 
        937.341      2.21561e+6 
        937.442      2.74253e+6 
        937.543       3.2185e+6 
        937.645      3.65147e+6 
        937.746      4.04628e+6 
        937.847      4.41064e+6 
        937.896      4.57915e+6 
        937.948      4.75326e+6 
            938        4.923e+6 
        938.104      5.25416e+6 
        938.208      5.56561e+6 
        938.312      5.86121e+6 
        938.416      6.13669e+6 
         938.52      6.39867e+6 
        938.543      6.45591e+6 
        938.624      6.65562e+6 
        938.729      6.90176e+6 
        938.914      7.32198e+6 
        938.927      7.35092e+6 
        939.099      7.74685e+6 
        939.271      8.18369e+6 
        939.443      8.60159e+6 
        939.523      8.79011e+6 
        939.615      9.00085e+6 
        939.788      9.38218e+6 
        939.828      9.47401e+6 
         939.98      9.81443e+6 
        940.132      1.01412e+7 
        940.284       1.0441e+7 
        940.436      1.07157e+7 
        940.588      1.09803e+7 
         940.74      1.12347e+7 
        940.893      1.14672e+7 
        941.045      1.16876e+7 
        941.197       1.1896e+7 
        941.349      1.20913e+7 
        941.501      1.22515e+7 
        941.653      1.24018e+7 
        941.958       1.2672e+7 
        942.262      1.29011e+7 
        942.566      1.30686e+7 
        942.693      1.31224e+7 
         942.87      1.31803e+7 
        943.048      1.32176e+7 
        943.225       1.3237e+7 
        943.402      1.32261e+7 
        943.579      1.31883e+7 
        943.756      1.31225e+7 
        943.933       1.3028e+7 
        944.111      1.28983e+7 
        944.288      1.27267e+7 
        944.465      1.25221e+7 
        944.642      1.22845e+7 
        944.685      1.22222e+7 
        944.819      1.20295e+7 
         944.84      1.19991e+7 
        944.996      1.17667e+7 
        945.151      1.15151e+7 
        945.308      1.12455e+7 
        945.619      1.06695e+7 
        945.775      1.03564e+7 
         945.93      1.00448e+7 
        945.947      1.00141e+7 
        946.086      9.76159e+6 
        946.241      9.47196e+6 
         946.25      9.45601e+6 
        946.553      8.90261e+6 
        946.856       8.3311e+6 
        947.007      8.03315e+6 
        947.158      7.72772e+6 
        947.309      7.40926e+6 
        947.461       7.0721e+6 
        947.613      6.71321e+6 
        947.764      6.32572e+6 
        947.915      5.89532e+6 
        948.017      5.58384e+6 
         948.05      5.47765e+6 
        948.066      5.42355e+6 
        948.083      5.36882e+6 
        948.149      5.14763e+6 
        948.281      4.67796e+6 
        948.413      4.15771e+6 
        948.546      3.56967e+6 
        948.579      3.41026e+6 
        948.661      2.99069e+6 
        948.678      2.89931e+6 
        948.777      2.32045e+6 
        948.835      1.92198e+6 
        948.893      1.47635e+6 
        948.922       1.2172e+6 
        948.951        1.036e+6 
        948.966      1.01286e+6 
         948.98      1.00975e+6 
        948.994      1.00976e+6 
        949.009      1.00993e+6 
        949.023      1.01008e+6 
        949.037      1.01024e+6 
        949.052      1.01041e+6 
        949.066       1.0107e+6 
        949.095      1.03763e+6 
        949.153      1.48039e+6 
         949.23      2.06571e+6 
        949.258      2.25973e+6 
        949.269       2.3319e+6 
         949.28      2.40364e+6 
         949.33      2.70375e+6 
         949.36      2.87387e+6 
         949.43      3.24979e+6 
          949.5      3.60234e+6 
         949.64      4.23986e+6 
        949.781      4.80428e+6 
        949.795       4.8574e+6 
        949.879      5.16679e+6 
        949.921      5.31545e+6 
        949.963      5.46185e+6 
        950.131      6.01565e+6 
        950.299      6.51915e+6 
        950.467      6.97368e+6 
        950.635      7.39745e+6 
        950.719       7.6003e+6 
        950.804      7.79772e+6 
        950.888      7.99061e+6 
        951.056      8.36788e+6 
        951.392       9.1028e+6 
        951.728       9.8253e+6 
        951.896      1.02076e+7 
        952.065      1.05934e+7 
        952.233      1.10085e+7 
        952.401      1.14603e+7 
        952.688      1.22258e+7 
        952.737      1.23589e+7 
        952.788      1.24978e+7 
        952.888      1.27704e+7 
        953.089      1.33186e+7 
        953.289      1.38706e+7 
        953.489       1.4485e+7 
        953.689      1.51084e+7 
        953.889      1.57359e+7 
         954.29      1.69649e+7 
         954.69      1.81877e+7 
         955.09      1.93281e+7 
        955.491      2.03891e+7 
        955.768      2.10978e+7 
        955.891      2.13783e+7 
        956.014      2.16483e+7 
         956.26      2.22457e+7 
        956.506      2.28319e+7 
        956.999       2.3955e+7 
        957.491      2.50009e+7 
        957.984      2.59585e+7 
        958.476      2.68121e+7 
        958.648      2.70843e+7 
        958.969      2.75502e+7 
        959.289      2.79593e+7 
        959.609      2.82729e+7 
        959.929      2.85294e+7 
        960.069      2.86234e+7 
         960.25      2.87258e+7 
         960.43      2.88061e+7 
         960.79      2.89588e+7 
         961.15       2.9012e+7 
        961.511      2.89653e+7 
        961.871      2.88104e+7 
        962.231       2.8551e+7 
        962.592      2.81861e+7 
        962.952      2.77158e+7 
        963.114      2.74705e+7 
        963.312      2.71459e+7 
        963.393      2.70059e+7 
        963.672      2.64845e+7 
        963.952      2.59175e+7 
        964.231      2.53007e+7 
         964.51      2.46486e+7 
        964.789       2.3965e+7 
        965.348      2.25159e+7 
        965.906       2.0994e+7 
        966.465      1.94682e+7 
        967.131      1.76755e+7 
        967.582      1.65007e+7 
        967.668      1.62801e+7 
        968.032       1.5361e+7 
        968.482      1.42363e+7 
        968.668      1.37821e+7 
        968.983       1.3009e+7 
        969.297       1.2232e+7 
        969.611      1.14358e+7 
        969.876      1.07456e+7 
        969.927      1.06122e+7 
        969.977      1.04776e+7 
        970.077      1.02029e+7 
        970.277      9.63228e+6 
        970.477      9.02394e+6 
         970.48      9.01442e+6 
        970.677      8.35406e+6 
        970.874      7.60944e+6 
        971.071      6.75436e+6 
         971.19      6.16481e+6 
        971.269      5.72687e+6 
        971.348      5.24812e+6 
        971.427      4.71804e+6 
        971.467       4.4298e+6 
        971.506      4.13126e+6 
        971.585      3.47614e+6 
        971.644      2.93493e+6 
        971.703      2.34361e+6 
        971.732      2.03939e+6 
        971.762      1.71733e+6 
        971.778      1.55335e+6 
        971.792      1.42278e+6 
        971.806      1.32515e+6 
        971.821      1.28686e+6 
        971.827      1.28646e+6 
        971.833      1.28654e+6 
        971.836      1.28658e+6 
        971.839      1.28662e+6 
        971.851      1.28678e+6 
        971.866      1.30102e+6 
         971.88      1.37693e+6 
         971.91      1.65707e+6 
        971.969       2.2873e+6 
        972.037      2.97447e+6 
        972.087      3.43822e+6 
        972.137      3.87025e+6 
         972.15      3.97691e+6 
        972.237      4.64704e+6 
        972.324      5.24379e+6 
        972.499      6.25683e+6 
        972.548      6.50608e+6 
        972.673      7.08988e+6 
        972.798      7.60793e+6 
        972.923      8.07537e+6 
        973.048      8.49769e+6 
        973.173      8.88653e+6 
        973.298      9.24715e+6 
        973.351       9.3944e+6 
        973.423      9.58845e+6 
        973.548      9.91238e+6 
        973.746      1.03984e+7 
        973.943      1.08636e+7 
         974.14      1.13025e+7 
        974.337      1.17347e+7 
        974.731      1.25889e+7 
        975.126       1.3412e+7 
          975.4       1.3979e+7 
         975.52        1.421e+7 
         975.64      1.44438e+7 
         975.88      1.49224e+7 
         976.12      1.53971e+7 
        976.361      1.58805e+7 
        976.601      1.63915e+7 
        976.841      1.69406e+7 
        977.081      1.75405e+7 
        977.321      1.81928e+7 
        977.562      1.87889e+7 
        977.802      1.94391e+7 
        978.042      2.01222e+7 
        978.282      2.07931e+7 
        978.522      2.15287e+7 
        978.642      2.19262e+7 
        978.762      2.23534e+7 
        978.883      2.28082e+7 
        979.003      2.32936e+7 
        979.123      2.38146e+7 
        979.181      2.40811e+7 
        979.243      2.43773e+7 
        979.305      2.46858e+7 
        979.429      2.52302e+7 
        979.553      2.58125e+7 
        979.677      2.64397e+7 
        979.801       2.7117e+7 
        979.925      2.78523e+7 
        980.049      2.84924e+7 
        980.173      2.90566e+7 
        980.298      2.96479e+7 
        980.422      3.02686e+7 
        980.546      3.09212e+7 
        980.794      3.21118e+7 
        981.042      3.32004e+7 
         981.29      3.43489e+7 
        981.787      3.66219e+7 
        982.283      3.89287e+7 
        982.779      4.12529e+7 
        983.028      4.24555e+7 
        983.276      4.36961e+7 
        983.524      4.50124e+7 
        983.621      4.55484e+7 
        983.772      4.64016e+7 
        983.923       4.7281e+7 
        984.226      4.89878e+7 
         984.83       5.2392e+7 
