# Koester WD models
# teff = 17000 K (value for the effective temperature for the model. Temperatures are given in K)
# logg = 9 log(cm/s2) (value for Log(G) for the model.)
#
# column 1: WAVELENGTH (ANGSTROM), Wavelength in Angstrom
# column 2: FLUX (ERG/CM2/S/A), Flux in erg/cm2/s/A
         899.23      1.40566e+6 
        904.235      1.47901e+6 
         908.45      1.54293e+6 
        909.241      1.55513e+6 
        910.032      1.56739e+6 
        911.193      1.58547e+6 
        911.613        1.592e+6 
        911.824      1.59523e+6 
        911.929      1.59684e+6 
        912.034      1.59844e+6 
        912.139      1.61808e+6 
        912.244       1.6376e+6 
        912.349      1.65704e+6 
        912.454      1.67636e+6 
        912.559      1.69554e+6 
        912.664      1.71447e+6 
         912.77      1.73301e+6 
        912.875      1.75088e+6 
        912.886      1.75271e+6 
        913.085      1.78295e+6 
        913.284      1.80853e+6 
        913.339      1.81375e+6 
        913.435      1.82277e+6 
        913.483      1.82809e+6 
        913.531      1.83227e+6 
        913.625      1.83626e+6 
        913.724      1.84025e+6 
        913.822      1.84686e+6 
        913.871      1.84779e+6 
        914.018      1.83843e+6 
        914.165      1.83287e+6 
        914.312      1.83733e+6 
        914.343      1.83483e+6 
        914.459        1.799e+6 
        914.575      1.76918e+6 
        914.692      1.80584e+6 
        914.808      1.82643e+6 
        914.924      1.74816e+6 
        915.009      1.66648e+6 
         915.04       1.6484e+6 
        915.071      1.64272e+6 
        915.133      1.67326e+6 
        915.257      1.80811e+6 
        915.381       1.8497e+6 
        915.505      1.69045e+6 
        915.609      1.51754e+6 
        915.617      1.50906e+6 
         915.63      1.49441e+6 
        915.643      1.48322e+6 
        915.677       1.4733e+6 
        915.745      1.53279e+6 
        915.881       1.8189e+6 
        916.017      1.99309e+6 
        916.153      1.89753e+6 
        916.289      1.57077e+6 
        916.379      1.36076e+6 
        916.421      1.32415e+6 
        916.425      1.32357e+6 
        916.429      1.32352e+6 
        916.479       1.3669e+6 
         916.58       1.6284e+6 
         916.68      1.94129e+6 
         916.78      2.17563e+6 
         916.88      2.28024e+6 
         916.98      2.22048e+6 
         917.08      2.01732e+6 
         917.18      1.69827e+6 
        917.182       1.6913e+6 
         917.28      1.34282e+6 
        917.378      1.18014e+6 
        917.575      1.72197e+6 
        917.771      2.40441e+6 
        917.967      2.70849e+6 
        918.163      2.48872e+6 
        918.359      1.83172e+6 
         918.51      1.23484e+6 
        918.556      1.11559e+6 
        918.602      1.07595e+6 
        918.694      1.23813e+6 
        918.878      2.00886e+6 
        919.062       2.7308e+6 
        919.201      3.11566e+6 
        919.241      3.19173e+6 
        919.246      3.19999e+6 
        919.251      3.20801e+6 
        919.301      3.27169e+6 
        919.402      3.31881e+6 
        919.502      3.27498e+6 
        919.602      3.11989e+6 
        919.702      2.86158e+6 
        919.802      2.53364e+6 
        919.902      2.13906e+6 
        920.002       1.7079e+6 
        920.102      1.25574e+6 
        920.165      1.05987e+6 
        920.189       1.0259e+6 
        920.202      1.01724e+6 
        920.215       1.0143e+6 
        920.265       1.0611e+6 
        920.366      1.43443e+6 
        920.466      1.88282e+6 
        920.566      2.32271e+6 
        920.666      2.75147e+6 
        920.766      3.13153e+6 
        920.866      3.47759e+6 
        920.966      3.75028e+6 
        921.066      3.95605e+6 
        921.166      4.09431e+6 
        921.266      4.15865e+6 
        921.367      4.15834e+6 
        921.467      4.08709e+6 
        921.567      3.93673e+6 
        921.667      3.71936e+6 
        921.767      3.43502e+6 
        921.867      3.08756e+6 
        921.967      2.71178e+6 
        922.067      2.28646e+6 
        922.167      1.82698e+6 
        922.267      1.35819e+6 
        922.331      1.08612e+6 
        922.368      1.01031e+6 
        922.405          990833 
        922.479      1.08795e+6 
        922.627      1.76898e+6 
         922.67      1.97471e+6 
         922.74      2.30007e+6 
        922.775      2.45548e+6 
         922.81      2.61624e+6 
         922.95      3.20125e+6 
         923.09      3.75857e+6 
         923.23      4.23889e+6 
        923.371       4.6527e+6 
        923.511      4.96155e+6 
        923.651      5.18275e+6 
        923.791      5.31089e+6 
        923.931      5.36697e+6 
        924.071      5.34913e+6 
        924.211      5.24511e+6 
        924.352      5.04973e+6 
        924.492       4.7564e+6 
        924.632      4.36279e+6 
        924.772      3.90117e+6 
        924.912      3.36593e+6 
        925.052      2.79053e+6 
        925.192      2.14759e+6 
        925.333      1.43348e+6 
        925.434      1.02862e+6 
        925.462      1.00371e+6 
        925.473      1.00086e+6 
        925.484      1.00009e+6 
        925.534      1.02979e+6 
        925.634      1.43293e+6 
        925.734      1.95425e+6 
        925.834      2.44444e+6 
        925.934      2.90351e+6 
        926.034      3.33326e+6 
        926.134      3.75662e+6 
        926.232      4.14304e+6 
        926.301      4.39961e+6 
        926.335      4.52996e+6 
        926.369      4.65521e+6 
        926.505      5.12479e+6 
        926.641      5.53379e+6 
        926.777      5.88599e+6 
        926.913      6.18561e+6 
        927.049      6.42754e+6 
        927.185      6.62678e+6 
        927.322      6.78333e+6 
        927.458      6.90239e+6 
        927.594      6.97914e+6 
         927.73      7.02322e+6 
        927.866      7.03154e+6 
        928.002      7.00274e+6 
        928.006      7.00129e+6 
        928.094      6.95005e+6 
        928.138      6.91493e+6 
        928.182      6.87412e+6 
        928.359      6.65283e+6 
        928.535      6.33867e+6 
        928.711      5.93095e+6 
        928.887      5.47353e+6 
        928.985      5.19236e+6 
        929.037      5.03349e+6 
        929.063      4.95071e+6 
        929.089      4.86545e+6 
        929.125      4.74286e+6 
        929.193      4.49738e+6 
        929.261      4.24706e+6 
        929.398      3.70978e+6 
        929.493      3.30675e+6 
        929.525      3.16685e+6 
        929.534      3.12791e+6 
        929.543       3.0888e+6 
        929.593      2.86433e+6 
        929.617      2.75239e+6 
        929.655      2.57134e+6 
        929.693      2.38416e+6 
        929.769      1.99213e+6 
        929.827      1.67281e+6 
        929.883      1.35896e+6 
         929.91      1.21693e+6 
        929.939      1.09841e+6 
        929.954      1.06764e+6 
        929.968      1.05098e+6 
        929.982      1.04484e+6 
        929.996      1.04288e+6 
         930.01      1.04241e+6 
        930.024      1.04321e+6 
        930.038       1.0455e+6 
        930.052      1.05197e+6 
        930.081      1.10015e+6 
        930.137      1.36274e+6 
        930.201      1.72449e+6 
        930.247       1.9799e+6 
        930.249       1.9911e+6 
        930.251       2.0023e+6 
        930.301      2.26829e+6 
        930.326      2.38986e+6 
        930.402      2.76564e+6 
        930.478      3.11972e+6 
         930.63      3.79131e+6 
        930.633      3.80422e+6 
        930.782      4.41381e+6 
        930.931      4.98847e+6 
         931.08      5.50049e+6 
        931.229      5.97298e+6 
        931.379      6.45148e+6 
        931.516      6.86419e+6 
        931.528      6.89922e+6 
        931.677      7.30612e+6 
        931.838      7.70859e+6 
        931.999      8.06604e+6 
         932.16      8.35249e+6 
        932.321      8.60853e+6 
        932.483      8.83202e+6 
        932.644       9.0296e+6 
        932.805       9.1884e+6 
        932.966      9.31247e+6 
        933.127      9.41341e+6 
        933.173      9.43797e+6 
        933.265      9.48133e+6 
        933.288      9.49091e+6 
        933.403      9.53093e+6 
        933.432      9.53813e+6 
        933.542      9.55798e+6 
        933.652       9.5642e+6 
        933.762      9.55581e+6 
        933.872      9.53238e+6 
        933.982       9.4888e+6 
        934.092      9.42242e+6 
        934.202       9.3365e+6 
        934.312      9.23028e+6 
        934.413      9.11923e+6 
        934.422      9.10924e+6 
        934.533      8.97663e+6 
        934.652      8.81094e+6 
        934.771      8.62066e+6 
         934.89       8.4086e+6 
        935.009       8.1704e+6 
        935.026      8.13409e+6 
        935.128      7.91964e+6 
         935.23      7.71289e+6 
        935.332      7.49232e+6 
        935.434      7.26201e+6 
        935.537      7.01954e+6 
        935.639      6.76209e+6 
        935.741      6.49116e+6 
        935.843      6.20188e+6 
        935.945      5.88832e+6 
         935.95      5.87226e+6 
        936.047      5.55258e+6 
        936.144      5.21228e+6 
        936.338      4.47338e+6 
        936.464      3.94845e+6 
        936.532      3.64673e+6 
        936.601       3.3305e+6 
        936.645      3.12029e+6 
        936.714      2.77689e+6 
        936.737      2.65868e+6 
        936.829      2.16408e+6 
        936.887       1.8158e+6 
        936.944      1.46175e+6 
        936.973      1.28951e+6 
        937.001      1.16411e+6 
        937.015      1.13867e+6 
        937.029      1.12778e+6 
        937.043      1.12556e+6 
        937.058       1.1252e+6 
        937.072      1.12529e+6 
        937.086      1.12554e+6 
        937.101      1.12628e+6 
        937.115      1.12885e+6 
        937.143      1.16593e+6 
         937.15      1.18998e+6 
        937.186       1.3797e+6 
        937.199      1.45976e+6 
         937.25      1.78018e+6 
        937.314      2.16909e+6 
        937.341      2.32403e+6 
        937.442      2.85843e+6 
        937.543      3.36166e+6 
        937.645      3.83749e+6 
        937.746      4.28529e+6 
        937.847      4.70494e+6 
        937.896      4.90299e+6 
        937.948       5.1098e+6 
            938      5.31011e+6 
        938.104      5.69495e+6 
        938.208      6.05922e+6 
        938.312      6.40257e+6 
        938.416      6.72436e+6 
         938.52      7.03139e+6 
        938.624       7.3289e+6 
        938.729      7.61538e+6 
        938.752      7.67736e+6 
        938.833      7.89639e+6 
        938.881      8.02479e+6 
        938.914      8.11228e+6 
        939.076      8.53919e+6 
        939.271      9.08743e+6 
        939.466      9.59976e+6 
        939.661      1.00859e+7 
        939.857      1.05624e+7 
        940.052       1.1032e+7 
        940.247      1.14676e+7 
        940.442      1.18579e+7 
        940.534      1.20336e+7 
        940.637      1.22239e+7 
         940.74      1.24071e+7 
        940.947       1.2729e+7 
        941.153      1.30241e+7 
        941.359      1.32908e+7 
        941.565      1.35082e+7 
        941.771      1.37065e+7 
        941.978      1.38864e+7 
        942.184      1.40472e+7 
         942.39      1.41828e+7 
        942.596      1.42933e+7 
        942.802        1.438e+7 
        942.891      1.44097e+7 
        942.969      1.44319e+7 
        943.009      1.44416e+7 
        943.048      1.44502e+7 
        943.204      1.44772e+7 
         943.36      1.44776e+7 
        943.516       1.4457e+7 
        943.672      1.44152e+7 
        943.828      1.43511e+7 
        943.984      1.42643e+7 
        944.141      1.41483e+7 
        944.297       1.4003e+7 
        944.453      1.38313e+7 
        944.609      1.36328e+7 
        944.765        1.341e+7 
        944.847      1.32951e+7 
        945.077      1.29407e+7 
        945.308      1.25394e+7 
        945.538       1.2111e+7 
        945.759      1.16583e+7 
        945.768      1.16389e+7 
        945.998      1.11506e+7 
        946.109      1.09176e+7 
        946.459      1.01682e+7 
        946.634      9.79225e+6 
        946.809      9.40439e+6 
        946.983      9.00164e+6 
        947.108      8.70281e+6 
        947.158      8.58035e+6 
        947.208      8.45641e+6 
        947.308      8.20279e+6 
        947.509      7.66806e+6 
        947.709      7.08611e+6 
        947.735      7.00657e+6 
        947.909      6.43298e+6 
        948.083      5.79388e+6 
        948.257      5.08423e+6 
        948.317      4.82583e+6 
        948.431      4.30141e+6 
        948.546      3.73689e+6 
         948.66      3.12965e+6 
        948.727      2.75056e+6 
        948.761      2.55044e+6 
        948.771      2.48873e+6 
        948.774      2.47007e+6 
        948.777      2.45145e+6 
        948.827      2.11894e+6 
        948.835      2.06524e+6 
        948.893      1.65496e+6 
        948.922      1.45276e+6 
        948.951      1.30453e+6 
        948.966       1.2845e+6 
         948.98      1.28052e+6 
        948.994      1.28044e+6 
        949.009      1.28062e+6 
        949.023      1.28081e+6 
        949.037        1.281e+6 
        949.052      1.28124e+6 
        949.066      1.28169e+6 
        949.095      1.30653e+6 
        949.153      1.65944e+6 
         949.23      2.20164e+6 
        949.258      2.39309e+6 
        949.269      2.46349e+6 
         949.28      2.53258e+6 
         949.33      2.83098e+6 
         949.36       3.0044e+6 
         949.43      3.39603e+6 
          949.5      3.77092e+6 
         949.64      4.47554e+6 
        949.781       5.1213e+6 
        949.795      5.18228e+6 
        949.879      5.54482e+6 
        949.921      5.72093e+6 
        949.963      5.89344e+6 
        950.131      6.54086e+6 
        950.299      7.13019e+6 
        950.467      7.66492e+6 
        950.635      8.16657e+6 
        950.719      8.40759e+6 
        950.804      8.64299e+6 
        950.888       8.8739e+6 
        951.056      9.32513e+6 
        951.224      9.76382e+6 
        951.392      1.01936e+7 
        951.728      1.10409e+7 
        952.065      1.19421e+7 
        952.401      1.28895e+7 
        952.738      1.38373e+7 
        953.075      1.48086e+7 
        953.413      1.58083e+7 
         953.75      1.68541e+7 
        954.087      1.78769e+7 
        954.425      1.88558e+7 
        954.593      1.93349e+7 
        954.762      1.98058e+7 
         954.93      2.02342e+7 
        955.099       2.0632e+7 
        955.267      2.10213e+7 
        955.437       2.1401e+7 
        955.534      2.16152e+7 
        955.774       2.2133e+7 
        956.014      2.26042e+7 
        956.254      2.31122e+7 
        956.735      2.40822e+7 
        957.215      2.49821e+7 
        957.695      2.58127e+7 
        958.024      2.63329e+7 
        958.176      2.65613e+7 
         958.34      2.68006e+7 
        958.656       2.7234e+7 
        958.973      2.76283e+7 
        959.289       2.7981e+7 
        959.413      2.81009e+7 
        959.605      2.82738e+7 
        959.921      2.85236e+7 
         960.43      2.88288e+7 
        960.684      2.89629e+7 
        960.938      2.90603e+7 
        961.192      2.91195e+7 
        961.447      2.91405e+7 
        961.701      2.91185e+7 
        961.955       2.9056e+7 
        962.209      2.89508e+7 
        962.463      2.88015e+7 
        962.718      2.86105e+7 
        962.972      2.83703e+7 
        963.226      2.80875e+7 
         963.48      2.77638e+7 
        963.735      2.73973e+7 
        963.747      2.73791e+7 
        963.989      2.69946e+7 
        964.231      2.65695e+7 
        964.715      2.56384e+7 
          965.2      2.45852e+7 
        965.684       2.3429e+7 
        966.169      2.22087e+7 
        966.653      2.09488e+7 
        967.137      1.96497e+7 
        967.211      1.94518e+7 
        967.622      1.83501e+7 
        968.032      1.72526e+7 
        968.408      1.62326e+7 
        968.853      1.50233e+7 
        969.075      1.44066e+7 
        969.297      1.37784e+7 
        969.519      1.31312e+7 
        969.556      1.30215e+7 
        969.741       1.2464e+7 
        969.927      1.18862e+7 
        970.112       1.1283e+7 
        970.297      1.06473e+7 
         970.46      1.00528e+7 
        970.482      9.96972e+6 
        970.564      9.65528e+6 
        970.667      9.23484e+6 
        970.771      8.78603e+6 
        970.874      8.31196e+6 
        970.977      7.80035e+6 
        971.081      7.24753e+6 
        971.185      6.63768e+6 
         971.23      6.35802e+6 
        971.289      5.96783e+6 
        971.348      5.55135e+6 
        971.466      4.65069e+6 
        971.535      4.07798e+6 
        971.567      3.80051e+6 
        971.584      3.64896e+6 
        971.635      3.18181e+6 
        971.644      3.09736e+6 
        971.703      2.53194e+6 
        971.732      2.24896e+6 
        971.762      1.95907e+6 
        971.778      1.81718e+6 
        971.792      1.71077e+6 
        971.806      1.64074e+6 
        971.821      1.62218e+6 
        971.827      1.62221e+6 
        971.833      1.62231e+6 
        971.836      1.62236e+6 
        971.839      1.62241e+6 
        971.851       1.6226e+6 
        971.866      1.62796e+6 
         971.88      1.67655e+6 
         971.91      1.90774e+6 
        971.969      2.47968e+6 
        972.037      3.13699e+6 
        972.087      3.60262e+6 
        972.137      4.04656e+6 
         972.15      4.15944e+6 
        972.237      4.87867e+6 
        972.324      5.54296e+6 
        972.499      6.70991e+6 
        972.548      7.00308e+6 
        972.673      7.68606e+6 
        972.798      8.29773e+6 
        972.923      8.84541e+6 
        973.048      9.34508e+6 
        973.173      9.80504e+6 
        973.298      1.02315e+7 
        973.423      1.06376e+7 
        973.548      1.10238e+7 
        973.601      1.11829e+7 
        973.673      1.13944e+7 
        973.746      1.16006e+7 
         973.89      1.20051e+7 
        974.034      1.23921e+7 
        974.178      1.27661e+7 
        974.466      1.35027e+7 
        974.754      1.42171e+7 
        975.043      1.49027e+7 
        975.331      1.55961e+7 
        975.556      1.60832e+7 
        975.598      1.61747e+7 
        975.619      1.62205e+7 
         975.64      1.62663e+7 
        975.724      1.64504e+7 
        975.892      1.68246e+7 
        976.228      1.75569e+7 
        976.565      1.83213e+7 
        976.733      1.87272e+7 
        976.901       1.9155e+7 
        977.069      1.96089e+7 
        977.237       2.0094e+7 
        977.405      2.05501e+7 
        977.574      2.09974e+7 
         977.91      2.19743e+7 
        978.246      2.29446e+7 
        978.414      2.34586e+7 
        978.582      2.40058e+7 
         978.75      2.45992e+7 
        978.919      2.52455e+7 
        979.087      2.59502e+7 
        979.105      2.60296e+7 
        979.205      2.64882e+7 
        979.255      2.67283e+7 
        979.305      2.69752e+7 
        979.505      2.78595e+7 
        979.705      2.88419e+7 
        979.905      2.99482e+7 
        980.105      3.09225e+7 
        980.306      3.18237e+7 
        980.506      3.27941e+7 
        980.706      3.37636e+7 
        980.906      3.45651e+7 
        981.106      3.53954e+7 
        981.506      3.70808e+7 
        982.307      4.04134e+7 
        982.707      4.20578e+7 
        983.108      4.37285e+7 
        983.508      4.54727e+7 
        983.863      4.71255e+7 
        983.893       4.7269e+7 
        983.908       4.7341e+7 
        983.923      4.74132e+7 
        983.983       4.7701e+7 
        984.103      4.82473e+7 
        984.344      4.92976e+7 
