# Koester WD models
# teff = 17000 K (value for the effective temperature for the model. Temperatures are given in K)
# logg = 9.25 log(cm/s2) (value for Log(G) for the model.)
#
# column 1: WAVELENGTH (ANGSTROM), Wavelength in Angstrom
# column 2: FLUX (ERG/CM2/S/A), Flux in erg/cm2/s/A
         899.23      1.47064e+6 
        904.235      1.54699e+6 
         908.45      1.61351e+6 
        909.241      1.62621e+6 
        910.032      1.63896e+6 
        911.193      1.65776e+6 
        911.613      1.66454e+6 
        911.824       1.6679e+6 
        911.929      1.66958e+6 
        912.034      1.67124e+6 
        912.139      1.68713e+6 
        912.244      1.70297e+6 
        912.349       1.7187e+6 
        912.454      1.73434e+6 
        912.559      1.74985e+6 
        912.664      1.76517e+6 
         912.77       1.7802e+6 
        912.875      1.79477e+6 
        912.886      1.79626e+6 
        913.037      1.81587e+6 
        913.085      1.82181e+6 
        913.284      1.84467e+6 
        913.531      1.86798e+6 
        913.649      1.87429e+6 
        913.736      1.88114e+6 
        913.779      1.88422e+6 
        913.822      1.88684e+6 
        913.994      1.88381e+6 
        914.165      1.88933e+6 
        914.336      1.88197e+6 
        914.439      1.86868e+6 
        914.507      1.85923e+6 
        914.575      1.85653e+6 
        914.712      1.86959e+6 
        914.848      1.85553e+6 
        914.897      1.83074e+6 
        914.984      1.78765e+6 
        915.071      1.76537e+6 
        915.245      1.84152e+6 
        915.419      1.84053e+6 
        915.544      1.71059e+6 
        915.594      1.65568e+6 
        915.609      1.63953e+6 
        915.643      1.61922e+6 
        915.677      1.61587e+6 
        915.745      1.65796e+6 
        915.881      1.85587e+6 
        916.017      1.98013e+6 
        916.153      1.90208e+6 
        916.289      1.65149e+6 
        916.379      1.50064e+6 
        916.421      1.47601e+6 
        916.425      1.47576e+6 
        916.429       1.4759e+6 
        916.479      1.50966e+6 
         916.58      1.70916e+6 
         916.68       1.9583e+6 
         916.78      2.14837e+6 
         916.88       2.2322e+6 
         916.98      2.17662e+6 
         917.08      1.99912e+6 
         917.18      1.72638e+6 
        917.182      1.72068e+6 
         917.28      1.43556e+6 
        917.378      1.30842e+6 
        917.575      1.75651e+6 
        917.771      2.35502e+6 
        917.967      2.62015e+6 
        918.163      2.41208e+6 
        918.359      1.81339e+6 
         918.51       1.3057e+6 
        918.556      1.20957e+6 
        918.602      1.17656e+6 
        918.694      1.30961e+6 
        918.878      1.98207e+6 
        919.062      2.64368e+6 
        919.201      2.99901e+6 
        919.241      3.06962e+6 
        919.246       3.0773e+6 
        919.251       3.0847e+6 
        919.301       3.1437e+6 
        919.402      3.18567e+6 
        919.502      3.14235e+6 
        919.602      2.99353e+6 
        919.702      2.74628e+6 
        919.802      2.44249e+6 
        919.902      2.07447e+6 
        920.002      1.68379e+6 
        920.102      1.29639e+6 
        920.165      1.13419e+6 
        920.189      1.10357e+6 
        920.202      1.09644e+6 
        920.215      1.09392e+6 
        920.265      1.13551e+6 
        920.366      1.44558e+6 
        920.466      1.84186e+6 
        920.566      2.24906e+6 
        920.666       2.6502e+6 
        920.766       3.0116e+6 
        920.866      3.34699e+6 
        920.966      3.60721e+6 
        921.066      3.80708e+6 
        921.166      3.94075e+6 
        921.266      4.00151e+6 
        921.367      3.99994e+6 
        921.467      3.93038e+6 
        921.567      3.78188e+6 
        921.667       3.5685e+6 
        921.767      3.29559e+6 
        921.867      2.95649e+6 
        921.967      2.59728e+6 
        922.067      2.19829e+6 
        922.167      1.77567e+6 
        922.267      1.36421e+6 
        922.331      1.13973e+6 
        922.368      1.07492e+6 
        922.405      1.05703e+6 
        922.479      1.14165e+6 
        922.627      1.72465e+6 
         922.67      1.91316e+6 
         922.74      2.21208e+6 
        922.775      2.35919e+6 
         922.81       2.5102e+6 
         922.95      3.06821e+6 
         923.09      3.61079e+6 
         923.23      4.08105e+6 
        923.371      4.48437e+6 
        923.511      4.78597e+6 
        923.651      5.00409e+6 
        923.791      5.13101e+6 
        923.931      5.18592e+6 
        924.071      5.16619e+6 
        924.211      5.06085e+6 
        924.352      4.86614e+6 
        924.492      4.57922e+6 
        924.632      4.19563e+6 
        924.772      3.74132e+6 
        924.912      3.22126e+6 
        925.052      2.66463e+6 
        925.192      2.06366e+6 
        925.333      1.42197e+6 
        925.434      1.08696e+6 
        925.462      1.06367e+6 
        925.473      1.06038e+6 
        925.484      1.05949e+6 
        925.534      1.08818e+6 
        925.634      1.42197e+6 
        925.734      1.88721e+6 
        925.834      2.33908e+6 
        925.934       2.7733e+6 
        926.034      3.18865e+6 
        926.134      3.60253e+6 
        926.232      3.97971e+6 
        926.301      4.23251e+6 
        926.335      4.36006e+6 
        926.369      4.48305e+6 
        926.505      4.94078e+6 
        926.641      5.34338e+6 
        926.777       5.6975e+6 
        926.913        5.999e+6 
        927.049      6.24668e+6 
        927.185      6.45057e+6 
        927.322      6.60869e+6 
        927.458      6.72766e+6 
        927.594      6.80469e+6 
         927.73      6.84779e+6 
        927.866      6.85395e+6 
        928.002      6.82147e+6 
        928.006      6.81986e+6 
        928.094      6.76708e+6 
        928.138      6.73136e+6 
        928.182      6.68993e+6 
        928.359      6.46653e+6 
        928.535      6.15498e+6 
        928.711      5.75025e+6 
        928.887      5.28884e+6 
        928.985      5.01053e+6 
        929.037      4.85348e+6 
        929.063      4.77114e+6 
        929.089      4.68666e+6 
        929.125      4.56561e+6 
        929.193      4.32487e+6 
        929.261      4.07757e+6 
        929.398      3.55377e+6 
        929.493      3.15953e+6 
        929.525      3.02458e+6 
        929.534      2.98685e+6 
        929.543      2.94907e+6 
        929.593      2.73283e+6 
        929.617      2.62737e+6 
        929.655       2.4561e+6 
        929.693      2.27978e+6 
        929.769      1.92139e+6 
        929.827      1.63496e+6 
        929.883       1.3616e+6 
         929.91      1.24425e+6 
        929.939      1.14898e+6 
        929.954      1.12414e+6 
        929.968      1.10921e+6 
        929.982      1.10345e+6 
        929.996      1.10113e+6 
         930.01       1.1007e+6 
        930.024      1.10147e+6 
        930.038      1.10414e+6 
        930.052      1.11025e+6 
        930.081       1.1508e+6 
        930.137      1.36538e+6 
        930.201      1.68133e+6 
        930.247      1.91119e+6 
        930.249      1.92123e+6 
        930.251      1.93124e+6 
        930.301      2.17477e+6 
        930.326      2.28566e+6 
        930.402      2.64021e+6 
        930.478      2.97885e+6 
         930.63      3.63281e+6 
        930.633      3.64538e+6 
        930.782      4.24115e+6 
        930.931      4.80651e+6 
         931.08      5.31171e+6 
        931.229      5.78663e+6 
        931.379      6.26371e+6 
        931.516      6.67359e+6 
        931.528      6.70821e+6 
        931.677      7.11024e+6 
        931.838      7.51394e+6 
        931.999      7.87381e+6 
         932.16      8.16758e+6 
        932.321      8.42918e+6 
        932.483      8.65738e+6 
        932.644      8.85712e+6 
        932.805      9.01763e+6 
        932.966       9.1421e+6 
        933.127      9.24329e+6 
        933.173      9.26792e+6 
        933.265      9.31137e+6 
        933.288      9.32098e+6 
        933.403      9.36119e+6 
        933.432      9.36832e+6 
        933.542      9.38752e+6 
        933.652      9.39283e+6 
        933.762      9.38296e+6 
        933.872      9.35774e+6 
        933.982      9.31316e+6 
        934.092      9.24687e+6 
        934.202      9.16104e+6 
        934.312      9.05445e+6 
        934.413      8.94317e+6 
        934.422      8.93328e+6 
        934.533      8.80177e+6 
        934.652       8.6369e+6 
        934.771      8.44862e+6 
         934.89      8.24081e+6 
        935.009      8.00666e+6 
        935.026      7.97094e+6 
        935.128      7.75662e+6 
         935.23      7.54626e+6 
        935.332      7.32176e+6 
        935.434        7.088e+6 
        935.537      6.84154e+6 
        935.639      6.58126e+6 
        935.741      6.30791e+6 
        935.843      6.01618e+6 
        935.945       5.7018e+6 
         935.95      5.68591e+6 
        936.047      5.37014e+6 
        936.144      5.03214e+6 
        936.338      4.30056e+6 
        936.464      3.78615e+6 
        936.532      3.48877e+6 
        936.601      3.18319e+6 
        936.645      2.97944e+6 
        936.714      2.65339e+6 
        936.737      2.54153e+6 
        936.829      2.08482e+6 
        936.887      1.77055e+6 
        936.944       1.4601e+6 
        936.973        1.319e+6 
        937.001      1.21913e+6 
        937.015      1.19885e+6 
        937.029      1.18918e+6 
        937.043      1.18697e+6 
        937.058      1.18651e+6 
        937.072      1.18655e+6 
        937.086      1.18687e+6 
        937.101      1.18773e+6 
        937.115       1.1903e+6 
        937.143      1.22102e+6 
         937.15      1.24094e+6 
        937.186      1.39346e+6 
        937.199      1.45889e+6 
         937.25      1.73925e+6 
        937.314      2.09006e+6 
        937.341       2.2317e+6 
        937.442      2.73126e+6 
        937.543      3.21316e+6 
        937.645      3.67563e+6 
        937.746       4.1148e+6 
        937.847      4.53002e+6 
        937.896      4.72634e+6 
        937.948      4.93023e+6 
            938      5.12793e+6 
        938.104      5.50998e+6 
        938.208      5.87007e+6 
        938.312      6.21508e+6 
        938.416      6.53907e+6 
         938.52      6.84851e+6 
        938.624      7.14967e+6 
        938.752      7.50307e+6 
        938.833      7.72574e+6 
        938.881       7.8558e+6 
        938.914      7.94433e+6 
        939.076      8.37615e+6 
        939.271      8.91449e+6 
        939.466      9.41705e+6 
        939.661      9.89727e+6 
        939.857      1.03682e+7 
        940.052      1.08305e+7 
        940.247      1.12585e+7 
        940.442      1.16448e+7 
        940.534      1.18182e+7 
        940.637      1.20047e+7 
         940.74      1.21832e+7 
        940.947      1.24907e+7 
        941.153      1.27708e+7 
        941.359      1.30236e+7 
        941.565      1.32322e+7 
        941.771      1.34224e+7 
        941.978      1.35945e+7 
        942.184      1.37488e+7 
         942.39      1.38801e+7 
        942.596      1.39887e+7 
        942.802      1.40753e+7 
        942.891      1.41057e+7 
        942.969      1.41288e+7 
        943.009      1.41391e+7 
        943.048      1.41484e+7 
        943.204      1.41781e+7 
         943.36      1.41813e+7 
        943.516      1.41648e+7 
        943.672       1.4128e+7 
        943.828        1.407e+7 
        943.984      1.39902e+7 
        944.141      1.38835e+7 
        944.297      1.37493e+7 
        944.453      1.35893e+7 
        944.609      1.34026e+7 
        944.765      1.31913e+7 
        944.847       1.3081e+7 
        945.077      1.27391e+7 
        945.308      1.23509e+7 
        945.538      1.19391e+7 
        945.768      1.14865e+7 
        945.998      1.10098e+7 
        946.228      1.05178e+7 
        946.459      1.00232e+7 
         946.68      9.54168e+6 
        946.919      8.99648e+6 
        947.039      8.71025e+6 
        947.158      8.41604e+6 
        947.277      8.11166e+6 
        947.397      7.79269e+6 
        947.517      7.46075e+6 
        947.637      7.11367e+6 
        947.669      7.01785e+6 
        947.756      6.74729e+6 
        947.772      6.69646e+6 
        947.876      6.35265e+6 
        947.979      5.98998e+6 
        948.083      5.60203e+6 
        948.187      5.19214e+6 
         948.29      4.75835e+6 
        948.394      4.30166e+6 
        948.449      4.04244e+6 
        948.497      3.81339e+6 
        948.506      3.76969e+6 
        948.546      3.57796e+6 
        948.642      3.08917e+6 
        948.661      2.99021e+6 
        948.777       2.3634e+6 
        948.835      2.01327e+6 
        948.893       1.6512e+6 
        948.922      1.48598e+6 
        948.951      1.36863e+6 
        948.966      1.35282e+6 
         948.98      1.34926e+6 
        948.994      1.34916e+6 
        949.009      1.34933e+6 
        949.023      1.34953e+6 
        949.037      1.34973e+6 
        949.052      1.34999e+6 
        949.066      1.35049e+6 
        949.095      1.37072e+6 
        949.153      1.65567e+6 
         949.23      2.13895e+6 
        949.258      2.31201e+6 
        949.269      2.37505e+6 
         949.28      2.43841e+6 
         949.33       2.7149e+6 
         949.36      2.87685e+6 
         949.43      3.24894e+6 
          949.5       3.6107e+6 
         949.64      4.29874e+6 
        949.781      4.93318e+6 
        949.795      4.99419e+6 
        949.879      5.35469e+6 
        949.921      5.52848e+6 
        949.963      5.69869e+6 
        950.131      6.34416e+6 
        950.299      6.93437e+6 
        950.467      7.47567e+6 
        950.635       7.9858e+6 
        950.719      8.23251e+6 
        950.804      8.47335e+6 
        950.888      8.70771e+6 
        951.056      9.16616e+6 
        951.224      9.61239e+6 
        951.392      1.00469e+7 
        951.728      1.09032e+7 
        952.065      1.18093e+7 
        952.401      1.27337e+7 
        952.738      1.36522e+7 
        953.075      1.46014e+7 
        953.413      1.55676e+7 
         953.75      1.65596e+7 
        954.087      1.75202e+7 
        954.425       1.8426e+7 
        954.593       1.8866e+7 
        954.762       1.9295e+7 
         954.93      1.96845e+7 
        955.099      2.00448e+7 
        955.267      2.03967e+7 
        955.437      2.07408e+7 
        955.534      2.09353e+7 
        955.774      2.14046e+7 
        956.014      2.18381e+7 
        956.494      2.27408e+7 
        956.975      2.35786e+7 
        957.455      2.43538e+7 
        957.543       2.4489e+7 
        957.936      2.50619e+7 
         957.98      2.51234e+7 
        958.416      2.57024e+7 
        958.852      2.62234e+7 
        959.289      2.66791e+7 
        959.725      2.70527e+7 
        959.893      2.71772e+7 
        960.162      2.73531e+7 
         960.43      2.74976e+7 
        960.698      2.76377e+7 
        960.966      2.77422e+7 
        961.234        2.781e+7 
        961.503        2.784e+7 
        961.771      2.78289e+7 
        962.039       2.7778e+7 
        962.307      2.76831e+7 
        962.576      2.75455e+7 
        962.844       2.7363e+7 
        963.112      2.71302e+7 
         963.38      2.68556e+7 
        963.648      2.65383e+7 
        963.917      2.61817e+7 
        964.047      2.59944e+7 
        964.139      2.58532e+7 
        964.185      2.57804e+7 
        964.231      2.57066e+7 
        964.415      2.54075e+7 
        964.783      2.47573e+7 
        965.152      2.40383e+7 
         965.52      2.32599e+7 
        965.888       2.2427e+7 
        966.257      2.15603e+7 
        966.625      2.06703e+7 
        966.993      1.97437e+7 
        967.428       1.8641e+7 
         967.73       1.7862e+7 
        968.032       1.7078e+7 
        968.637      1.54704e+7 
        969.185      1.39626e+7 
        969.241      1.38041e+7 
        969.297      1.36444e+7 
        969.339       1.3522e+7 
        969.409      1.33199e+7 
        969.633      1.26524e+7 
        969.779      1.22012e+7 
        969.927      1.17363e+7 
        970.074      1.12525e+7 
         970.22      1.07466e+7 
        970.367      1.02174e+7 
        970.514      9.65779e+6 
         970.66      9.05944e+6 
         970.74      8.71336e+6 
        970.807      8.40945e+6 
        970.874      8.09303e+6 
        971.008      7.42003e+6 
        971.144      6.67064e+6 
        971.209      6.27737e+6 
        971.278      5.82542e+6 
        971.348      5.34608e+6 
        971.389      5.04493e+6 
        971.467      4.45622e+6 
        971.487      4.29647e+6 
        971.585       3.4948e+6 
        971.644      2.98875e+6 
        971.703      2.47574e+6 
        971.732      2.22161e+6 
        971.762      1.97151e+6 
        971.778      1.85112e+6 
        971.792      1.76661e+6 
        971.806      1.71677e+6 
        971.821      1.70706e+6 
        971.827      1.70716e+6 
        971.833      1.70726e+6 
        971.836      1.70731e+6 
        971.839      1.70736e+6 
        971.851      1.70757e+6 
        971.866      1.70997e+6 
         971.88      1.74153e+6 
         971.91      1.92727e+6 
        971.969      2.42921e+6 
        972.037      3.02595e+6 
        972.087      3.45914e+6 
        972.137      3.88125e+6 
         972.15      3.98904e+6 
        972.237      4.68506e+6 
        972.324      5.33684e+6 
        972.499      6.49135e+6 
        972.548        6.781e+6 
        972.673      7.46358e+6 
        972.798      8.07443e+6 
        972.923      8.62952e+6 
        973.048      9.13556e+6 
        973.173      9.60313e+6 
        973.298      1.00397e+7 
        973.351      1.02193e+7 
        973.423      1.04543e+7 
        973.548      1.08476e+7 
        973.746      1.14357e+7 
        973.943      1.19966e+7 
         974.14      1.25193e+7 
        974.337      1.30298e+7 
        974.731      1.40267e+7 
        975.126      1.49667e+7 
          975.4      1.56049e+7 
         975.52      1.58629e+7 
         975.64      1.61224e+7 
         975.88      1.66497e+7 
        976.361      1.76896e+7 
        976.601      1.82363e+7 
        976.841      1.88168e+7 
        977.081      1.94435e+7 
        977.321      2.01162e+7 
        977.802       2.1383e+7 
        978.042      2.20676e+7 
        978.282       2.2733e+7 
        978.522      2.34557e+7 
        978.762      2.42566e+7 
        979.003       2.5162e+7 
        979.181      2.59084e+7 
        979.243      2.61867e+7 
        979.305      2.64761e+7 
        979.429      2.69872e+7 
        979.553      2.75321e+7 
        979.677       2.8114e+7 
        979.801      2.87357e+7 
        979.925      2.94054e+7 
        980.049      2.99897e+7 
        980.173      3.05013e+7 
        980.298      3.10296e+7 
        980.422      3.15805e+7 
        980.546      3.21558e+7 
        980.794      3.31947e+7 
        981.042      3.41435e+7 
         981.29      3.51305e+7 
        981.636      3.64503e+7 
        981.787      3.70403e+7 
        982.207      3.86617e+7 
        982.779      4.07926e+7 
        983.351      4.29685e+7 
        983.923      4.53564e+7 
        985.067      4.98464e+7 
        985.804      5.26437e+7 
        986.211      5.42038e+7 
        986.415      5.49609e+7 
        986.618      5.57209e+7 
        986.821      5.64161e+7 
        987.026      5.68902e+7 
        987.229      5.73491e+7 
        987.433       5.7799e+7 
         987.84      5.86102e+7 
        988.043      5.89947e+7 
        988.247      5.95291e+7 
        988.451       6.0176e+7 
        988.655      6.08187e+7 
        988.812      6.13135e+7 
        989.062      6.18554e+7 
        989.312      6.23804e+7 
