# Koester WD models
# teff = 17000 K (value for the effective temperature for the model. Temperatures are given in K)
# logg = 8.25 log(cm/s2) (value for Log(G) for the model.)
#
# column 1: WAVELENGTH (ANGSTROM), Wavelength in Angstrom
# column 2: FLUX (ERG/CM2/S/A), Flux in erg/cm2/s/A
         899.23      1.33564e+6 
        904.235       1.4055e+6 
         908.45      1.46639e+6 
        909.241      1.47802e+6 
        910.032       1.4897e+6 
        911.193      1.50708e+6 
        911.613      1.51335e+6 
        911.824      1.51645e+6 
        911.929        1.518e+6 
        912.034      1.51953e+6 
        912.139       1.5543e+6 
        912.244      1.58918e+6 
        912.349       1.6241e+6 
        912.454        1.659e+6 
        912.559      1.69363e+6 
        912.664      1.72787e+6 
         912.77      1.76156e+6 
        912.875      1.79387e+6 
        912.886      1.79712e+6 
         912.98      1.82293e+6 
        913.085      1.84233e+6 
        913.284      1.84795e+6 
        913.433      1.84221e+6 
        913.483      1.83617e+6 
        913.533      1.83752e+6 
        913.633      1.85118e+6 
        913.645      1.84966e+6 
        913.734      1.81754e+6 
        913.822      1.78708e+6 
        913.831      1.78856e+6 
        913.998      1.84252e+6 
        914.165      1.66787e+6 
        914.332       1.8701e+6 
        914.423      1.80214e+6 
        914.499      1.60408e+6 
        914.575      1.49843e+6 
        914.728      1.84381e+6 
         914.88       1.8624e+6 
        914.982      1.51331e+6 
        915.032      1.35867e+6 
        915.082      1.32154e+6 
        915.182      1.61533e+6 
        915.282      1.98662e+6 
        915.382      2.08298e+6 
        915.482      1.86107e+6 
        915.522      1.69474e+6 
        915.583      1.41634e+6 
        915.593      1.36682e+6 
        915.643      1.19742e+6 
        915.693      1.17068e+6 
        915.793      1.53279e+6 
        915.893      2.02288e+6 
        915.993       2.3042e+6 
        916.093      2.31561e+6 
        916.193       2.0507e+6 
        916.293      1.56031e+6 
        916.343      1.28505e+6 
        916.393      1.09117e+6 
        916.443      1.05398e+6 
        916.544      1.44336e+6 
        916.644      2.02224e+6 
        916.744      2.46246e+6 
        916.844      2.70185e+6 
        916.944      2.71969e+6 
        917.044      2.50911e+6 
        917.144      2.08695e+6 
        917.244      1.50802e+6 
        917.294      1.20206e+6 
        917.344      1.00249e+6 
        917.394          973325 
        917.495      1.39703e+6 
        917.595      2.03189e+6 
        917.695      2.56457e+6 
        917.795      2.97106e+6 
        917.895      3.21872e+6 
        917.995      3.29588e+6 
        918.095      3.20219e+6 
        918.195      2.92012e+6 
        918.295      2.50482e+6 
        918.395      1.96014e+6 
        918.496      1.28817e+6 
        918.546      1.01507e+6 
        918.596          914851 
        918.646          973536 
        918.746      1.55896e+6 
        918.846      2.20425e+6 
        918.946      2.75553e+6 
        919.046      3.24354e+6 
        919.146      3.63228e+6 
        919.196      3.77553e+6 
        919.246      3.89042e+6 
        919.296      3.97163e+6 
        919.397      4.03801e+6 
        919.497      3.99579e+6 
        919.597       3.8263e+6 
        919.697      3.53885e+6 
        919.797      3.13341e+6 
        919.897      2.64465e+6 
        919.997      2.06672e+6 
        920.097       1.3581e+6 
        920.147      1.03439e+6 
        920.197          896642 
        920.247          913371 
        920.347      1.46958e+6 
        920.448      2.16418e+6 
        920.548      2.75378e+6 
        920.648      3.27935e+6 
        920.748      3.74735e+6 
        920.848      4.14354e+6 
        920.948       4.4588e+6 
        921.048      4.68861e+6 
        921.148      4.84487e+6 
        921.248      4.92209e+6 
        921.349      4.93642e+6 
        921.449      4.87933e+6 
        921.549      4.74629e+6 
        921.649        4.532e+6 
        921.749      4.23584e+6 
        921.849      3.86548e+6 
        921.949      3.43508e+6 
        922.049      2.92263e+6 
        922.149       2.3452e+6 
        922.249       1.6638e+6 
        922.294      1.30022e+6 
         922.35          960366 
        922.405          889231 
        922.515      1.30342e+6 
        922.625      2.13723e+6 
         922.66      2.35954e+6 
        922.735      2.81258e+6 
         922.81      3.22924e+6 
         922.96      3.96434e+6 
         923.11       4.6041e+6 
         923.26      5.13101e+6 
        923.411       5.5478e+6 
        923.561      5.84864e+6 
        923.711      6.04735e+6 
        923.861      6.15661e+6 
        924.011      6.18143e+6 
        924.161      6.10927e+6 
        924.312      5.93192e+6 
        924.462      5.63599e+6 
        924.612      5.22249e+6 
        924.762      4.72508e+6 
        924.912      4.11332e+6 
        925.062      3.40392e+6 
        925.212      2.53323e+6 
        925.241      2.33598e+6 
        925.363      1.41894e+6 
        925.484          909912 
        925.605      1.42271e+6 
        925.726      2.34804e+6 
        925.847      3.10982e+6 
        925.968       3.7635e+6 
        926.089      4.33471e+6 
         926.21      4.85822e+6 
        926.282       5.1355e+6 
        926.332       5.3255e+6 
        926.382      5.50696e+6 
        926.482       5.8673e+6 
        926.682      6.48466e+6 
        926.882      6.96868e+6 
        927.082      7.32324e+6 
        927.283      7.58406e+6 
        927.483      7.76558e+6 
        927.683      7.86306e+6 
        927.883       7.8853e+6 
        927.984      7.86633e+6 
        928.083      7.81493e+6 
        928.182      7.72725e+6 
        928.381      7.45597e+6 
        928.579      7.05404e+6 
        928.777      6.56725e+6 
        928.861      6.35516e+6 
        928.975       6.0366e+6 
        929.089      5.68075e+6 
        929.145      5.48877e+6 
        929.203      5.27929e+6 
        929.261      5.06016e+6 
        929.378      4.58286e+6 
        929.444      4.28381e+6 
        929.494      4.05036e+6 
        929.544      3.80199e+6 
        929.644      3.25519e+6 
        929.694      2.95171e+6 
        929.705      2.88277e+6 
        929.744      2.62773e+6 
        929.794      2.26404e+6 
        929.827      2.00729e+6 
        929.883      1.53462e+6 
        929.889      1.47963e+6 
        929.939        1.057e+6 
        929.989          954890 
        930.039          957074 
        930.089      1.10526e+6 
        930.139       1.5558e+6 
        930.189      1.98208e+6 
        930.239      2.37203e+6 
        930.289      2.73082e+6 
        930.301      2.81026e+6 
         930.39      3.35632e+6 
        930.478      3.84364e+6 
        930.654      4.69511e+6 
        930.729      5.02171e+6 
         930.83        5.431e+6 
        930.931      5.81405e+6 
        931.032      6.16801e+6 
        931.133      6.49964e+6 
        931.234      6.81292e+6 
        931.237        6.822e+6 
        931.335      7.14043e+6 
        931.388      7.30885e+6 
        931.538      7.78612e+6 
        931.688      8.23612e+6 
        931.838       8.6456e+6 
        931.988      9.01244e+6 
        932.138      9.29453e+6 
        932.288      9.54721e+6 
        932.439      9.76869e+6 
        932.589      9.96658e+6 
        932.739      1.01403e+7 
        932.889       1.0281e+7 
        933.039       1.0399e+7 
        933.189      1.04954e+7 
        933.275      1.05406e+7 
        933.339      1.05692e+7 
        933.403      1.05934e+7 
        933.482      1.06149e+7 
        933.512      1.06213e+7 
        933.532      1.06251e+7 
        933.582      1.06322e+7 
        933.652      1.06372e+7 
        933.792      1.06292e+7 
        933.932      1.05951e+7 
        934.072      1.05087e+7 
        934.212      1.03868e+7 
        934.352      1.02278e+7 
        934.493      1.00425e+7 
        934.583      9.90538e+6 
        934.633      9.82225e+6 
        934.683      9.73441e+6 
        934.783      9.54498e+6 
        934.983      9.11712e+6 
        935.133      8.77453e+6 
        935.183      8.67186e+6 
        935.233      8.56612e+6 
        935.333       8.3447e+6 
        935.534       7.8663e+6 
        935.734      7.33904e+6 
        935.934      6.74676e+6 
        936.084      6.24869e+6 
        936.134      6.07163e+6 
        936.184      5.89215e+6 
        936.284      5.51698e+6 
        936.384      5.11454e+6 
        936.484      4.66803e+6 
        936.534      4.42647e+6 
        936.585      4.17084e+6 
        936.635      3.89727e+6 
        936.641      3.86362e+6 
        936.714      3.43225e+6 
        936.735      3.29987e+6 
        936.829       2.6529e+6 
        936.887      2.18288e+6 
        936.944       1.6588e+6 
        936.951      1.58736e+6 
        937.001      1.10913e+6 
        937.051       1.0319e+6 
        937.101      1.03279e+6 
        937.151      1.15816e+6 
        937.201      1.67249e+6 
        937.251      2.13859e+6 
        937.301      2.55634e+6 
        937.351      2.93408e+6 
        937.359      2.98988e+6 
        937.451      3.58811e+6 
        937.543      4.12196e+6 
        937.728      5.03959e+6 
        937.824      5.45324e+6 
        937.912      5.80789e+6 
            938      6.14301e+6 
        938.176      6.78179e+6 
        938.352      7.36443e+6 
        938.528      7.89608e+6 
        938.705      8.40753e+6 
        938.831      8.75754e+6 
        938.881      8.89426e+6 
        938.931      9.02935e+6 
        939.031      9.29629e+6 
        939.181      9.76438e+6 
        939.231      9.92219e+6 
        939.281      1.00784e+7 
        939.381      1.03855e+7 
        939.581      1.09874e+7 
        939.782      1.15607e+7 
        939.982      1.21414e+7 
        940.024      1.22602e+7 
        940.182      1.26971e+7 
        940.203      1.27538e+7 
        940.382      1.31802e+7 
        940.561      1.35891e+7 
         940.69      1.38735e+7 
         940.74      1.39815e+7 
         940.79      1.40843e+7 
        940.891      1.42852e+7 
        941.091      1.46673e+7 
        941.291      1.50251e+7 
        941.491      1.53238e+7 
        941.691      1.55872e+7 
        941.891      1.58279e+7 
        942.092      1.60453e+7 
        942.292      1.62358e+7 
        942.337      1.62724e+7 
        942.492      1.63856e+7 
        942.515      1.64005e+7 
        942.692      1.65025e+7 
         942.87      1.65769e+7 
        943.048      1.66223e+7 
        943.225      1.66425e+7 
        943.403      1.66217e+7 
         943.58       1.6564e+7 
        943.758      1.64676e+7 
        943.935      1.63321e+7 
        944.114      1.61468e+7 
        944.291      1.59034e+7 
        944.469      1.56162e+7 
        944.646      1.52868e+7 
        944.824      1.49367e+7 
        945.051      1.44742e+7 
        945.179      1.41908e+7 
        945.308      1.38928e+7 
        945.436      1.35865e+7 
        945.692      1.29358e+7 
         945.82      1.25918e+7 
        945.948      1.22726e+7 
        946.076       1.1979e+7 
        946.204      1.16824e+7 
        946.275      1.15166e+7 
        946.333      1.13838e+7 
        946.461      1.10984e+7 
        946.717      1.05092e+7 
        946.938       9.9924e+6 
        947.158      9.45607e+6 
        947.378      8.89303e+6 
         947.49      8.59706e+6 
          947.6       8.2879e+6 
         947.71      7.96142e+6 
         947.82      7.61418e+6 
        947.931        7.242e+6 
        947.991      7.02777e+6 
        948.041      6.84405e+6 
        948.091      6.65408e+6 
        948.191       6.2616e+6 
        948.291       5.8384e+6 
        948.391      5.37542e+6 
        948.437      5.14473e+6 
        948.491       4.8607e+6 
        948.546      4.55631e+6 
        948.654      3.88656e+6 
        948.712      3.48726e+6 
        948.731      3.35051e+6 
        948.762      3.11327e+6 
        948.812      2.68619e+6 
        948.835      2.47552e+6 
        948.893      1.87777e+6 
        948.901      1.78636e+6 
        948.951      1.22614e+6 
        949.001      1.17575e+6 
        949.049      1.17636e+6 
        949.051      1.17639e+6 
        949.101      1.25969e+6 
        949.153      1.88278e+6 
        949.207      2.44633e+6 
        949.257      2.90248e+6 
        949.307      3.30904e+6 
        949.314      3.36194e+6 
        949.407      4.01492e+6 
          949.5       4.5969e+6 
        949.687      5.59668e+6 
        949.783      6.04216e+6 
        949.873        6.432e+6 
        949.963      6.79794e+6 
        950.143      7.48478e+6 
        950.323      8.10543e+6 
        950.503      8.67114e+6 
        950.683      9.19921e+6 
        950.814      9.56518e+6 
        950.864      9.70341e+6 
        950.914      9.84022e+6 
        951.014      1.01108e+7 
        951.214      1.06465e+7 
        951.614      1.17056e+7 
        951.814      1.22472e+7 
        952.015      1.28137e+7 
        952.092       1.3035e+7 
        952.215      1.34198e+7 
        952.415      1.41153e+7 
        952.738      1.52477e+7 
        953.061      1.64166e+7 
        953.223      1.70146e+7 
        953.385      1.76574e+7 
        953.546      1.83426e+7 
        953.708      1.90394e+7 
        953.869      1.97493e+7 
        953.988       2.0276e+7 
        954.031      2.04618e+7 
        954.355      2.18611e+7 
        954.495      2.24756e+7 
        954.748      2.35991e+7 
        955.001      2.46621e+7 
        955.254       2.5681e+7 
        955.508      2.66816e+7 
        955.761      2.76553e+7 
        956.014      2.85118e+7 
         956.52      3.02259e+7 
        957.027      3.18589e+7 
        957.533       3.3391e+7 
        957.804       3.4157e+7 
         958.04      3.47941e+7 
        958.175      3.51444e+7 
        958.546      3.60586e+7 
        958.918       3.6877e+7 
        959.289      3.75854e+7 
        959.633      3.81433e+7 
         959.66      3.81826e+7 
        960.031      3.86589e+7 
         960.43      3.90161e+7 
        960.629      3.92275e+7 
        960.828      3.93865e+7 
        961.027      3.94882e+7 
        961.226      3.95351e+7 
        961.426      3.95266e+7 
        961.625      3.94565e+7 
        961.824      3.93287e+7 
        962.023      3.91446e+7 
        962.222      3.89017e+7 
        962.421      3.86014e+7 
        962.621      3.82486e+7 
         962.82      3.78411e+7 
        963.019      3.73727e+7 
        963.218      3.68584e+7 
        963.417      3.63008e+7 
        963.616      3.56948e+7 
        963.799      3.51108e+7 
        964.015      3.43835e+7 
        964.231      3.36075e+7 
        964.663      3.19701e+7 
        964.753       3.1617e+7 
        965.096      3.02444e+7 
        965.528       2.8476e+7 
        965.573      2.82893e+7 
        965.982      2.66124e+7 
        966.393      2.49625e+7 
        966.802      2.33675e+7 
        967.212      2.18259e+7 
        967.622      2.03559e+7 
        967.982      1.91278e+7 
        968.032      1.89581e+7 
        968.082      1.87887e+7 
        968.182       1.8454e+7 
        968.382      1.77973e+7 
        968.783      1.65184e+7 
        969.069      1.56193e+7 
        969.124      1.54475e+7 
        969.183       1.5263e+7 
        969.297       1.4907e+7 
        969.525      1.41889e+7 
        969.726      1.35525e+7 
        969.927      1.29051e+7 
        970.127      1.22368e+7 
        970.328      1.15386e+7 
        970.428       1.1174e+7 
        970.528      1.07968e+7 
        970.584      1.05816e+7 
        970.629      1.04044e+7 
        970.729      9.98458e+6 
        970.874       9.3371e+6 
        971.019      8.62578e+6 
        971.165      7.82165e+6 
         971.26       7.2217e+6 
         971.31      6.87795e+6 
         971.36      6.50724e+6 
         971.46      5.68151e+6 
         971.51      5.21633e+6 
        971.517      5.14819e+6 
         971.56      4.71025e+6 
         971.61      4.16195e+6 
        971.644      3.75851e+6 
        971.703      2.99655e+6 
        971.712      2.87228e+6 
        971.762      2.16414e+6 
        971.812      1.53339e+6 
        971.855      1.49401e+6 
        971.862      1.51134e+6 
        971.912      2.10874e+6 
        971.969      2.92108e+6 
        972.033      3.75923e+6 
        972.083      4.34944e+6 
        972.133      4.89162e+6 
        972.142      4.98414e+6 
        972.233      5.84864e+6 
        972.324       6.5954e+6 
        972.507      7.82998e+6 
         972.58       8.2496e+6 
        972.689       8.8226e+6 
        972.798      9.34212e+6 
        972.907       9.8165e+6 
        973.016      1.02551e+7 
        973.125      1.06622e+7 
        973.234      1.10433e+7 
        973.343       1.1406e+7 
        973.377      1.15164e+7 
        973.452       1.1755e+7 
        973.561       1.2091e+7 
        973.746      1.26345e+7 
         973.93      1.31599e+7 
        974.114      1.36607e+7 
        974.482      1.46511e+7 
        974.797      1.54839e+7 
        975.219      1.66007e+7 
         975.64      1.76575e+7 
        976.061      1.87382e+7 
        976.273      1.92831e+7 
        976.483      1.98548e+7 
        976.694      2.04643e+7 
        976.904      2.11224e+7 
        977.115      2.18423e+7 
        977.325      2.26171e+7 
        977.536      2.33266e+7 
        977.747      2.40976e+7 
        977.958      2.49433e+7 
        978.168      2.57391e+7 
        978.379      2.65973e+7 
        978.589       2.7539e+7 
        978.716      2.81615e+7 
          978.8      2.85967e+7 
        978.864      2.89416e+7 
        979.011      2.97928e+7 
        979.158      3.07278e+7 
        979.305      3.17624e+7 
        979.452      3.27125e+7 
        979.599      3.37511e+7 
        979.746       3.4893e+7 
        979.893      3.61585e+7 
         980.04      3.73567e+7 
        980.188      3.83689e+7 
        980.482      4.05963e+7 
         981.07      4.48629e+7 
        981.659      4.91326e+7 
        981.748      4.98015e+7 
        982.247      5.35632e+7 
        982.291      5.38931e+7 
        982.563      5.59574e+7 
        982.835      5.80968e+7 
        983.108      6.03079e+7 
        983.379      6.26258e+7 
        983.651       6.5156e+7 
        983.873      6.73278e+7 
        983.923       6.7833e+7 
        983.973      6.83535e+7 
        984.073      6.93695e+7 
        984.274      7.12947e+7 
        984.674      7.53662e+7 
        985.074      7.92699e+7 
        985.474      8.33037e+7 
        985.875       8.7619e+7 
        985.932      8.82467e+7 
        986.275      9.19808e+7 
        986.446      9.38438e+7 
        986.618      9.57363e+7 
         986.79      9.74695e+7 
        986.962      9.85024e+7 
        987.134      9.95074e+7 
        987.305      1.00483e+8 
        987.648      1.02312e+8 
        987.991      1.03959e+8 
        988.163      1.04889e+8 
        988.335      1.06474e+8 
        988.507      1.08042e+8 
        988.678      1.09616e+8 
         988.73      1.10096e+8 
         988.85      1.11074e+8 
        989.021      1.12074e+8 
        989.167      1.12906e+8 
        989.312      1.13722e+8 
        989.457      1.14492e+8 
        989.603      1.14632e+8 
        989.749      1.14479e+8 
        989.895      1.14299e+8 
         990.04      1.14095e+8 
        990.186      1.13868e+8 
        990.331      1.14023e+8 
        990.477      1.14214e+8 
        990.622      1.14384e+8 
        990.768      1.14533e+8 
        990.913      1.14866e+8 
        991.059      1.15955e+8 
