# Koester WD models
# teff = 17500 K (value for the effective temperature for the model. Temperatures are given in K)
# logg = 8.75 log(cm/s2) (value for Log(G) for the model.)
#
# column 1: WAVELENGTH (ANGSTROM), Wavelength in Angstrom
# column 2: FLUX (ERG/CM2/S/A), Flux in erg/cm2/s/A
         899.23      2.04439e+6 
        904.235      2.14661e+6 
         908.45      2.23549e+6 
        909.241      2.25245e+6 
        910.032      2.26947e+6 
        911.193      2.29459e+6 
        911.613      2.30365e+6 
        911.824      2.30814e+6 
        911.929      2.31037e+6 
        912.034      2.31258e+6 
        912.139      2.34475e+6 
        912.244      2.37673e+6 
        912.349      2.40847e+6 
        912.454      2.43998e+6 
        912.559      2.47108e+6 
        912.664      2.50177e+6 
         912.77      2.53192e+6 
        912.875      2.56137e+6 
        912.886      2.56436e+6 
        913.085      2.61228e+6 
        913.284      2.64865e+6 
        913.339      2.65504e+6 
        913.435      2.66534e+6 
        913.483      2.67241e+6 
        913.531      2.67848e+6 
        913.625      2.68304e+6 
        913.724      2.68239e+6 
        913.822       2.6874e+6 
        913.871      2.69028e+6 
        914.018      2.67645e+6 
        914.165      2.64327e+6 
        914.312      2.68003e+6 
        914.343      2.68078e+6 
        914.459      2.60098e+6 
        914.575      2.51942e+6 
        914.692      2.61595e+6 
        914.808      2.68553e+6 
        914.924      2.53988e+6 
        915.009      2.36521e+6 
         915.04       2.3226e+6 
        915.071      2.30898e+6 
        915.133      2.37619e+6 
        915.257      2.65478e+6 
        915.381      2.74314e+6 
        915.505      2.47362e+6 
        915.609      2.14636e+6 
        915.617       2.1284e+6 
         915.63      2.09688e+6 
        915.643      2.07368e+6 
        915.677       2.0494e+6 
        915.745       2.1662e+6 
        915.881      2.68158e+6 
        916.017      2.96912e+6 
        916.153      2.82234e+6 
        916.289      2.28389e+6 
        916.379      1.89668e+6 
        916.421      1.82427e+6 
        916.425      1.82298e+6 
        916.429      1.82271e+6 
        916.479      1.90412e+6 
         916.58      2.37192e+6 
         916.68      2.87887e+6 
         916.78      3.23835e+6 
         916.88      3.39889e+6 
         916.98      3.31303e+6 
         917.08      3.00985e+6 
         917.18      2.51609e+6 
        917.182      2.50468e+6 
         917.28      1.92502e+6 
        917.378      1.61681e+6 
        917.575      2.54777e+6 
        917.771      3.57941e+6 
        917.967        4.024e+6 
        918.163      3.71079e+6 
        918.359      2.73707e+6 
         918.51      1.76708e+6 
        918.556      1.54505e+6 
        918.602      1.46781e+6 
        918.694      1.77153e+6 
        918.878      3.00209e+6 
        919.062      4.05913e+6 
        919.201      4.60614e+6 
        919.241      4.71462e+6 
        919.246      4.72646e+6 
        919.251      4.73793e+6 
        919.301      4.82784e+6 
        919.402      4.89564e+6 
        919.502       4.8356e+6 
        919.602      4.61836e+6 
        919.702      4.25676e+6 
        919.802      3.78351e+6 
        919.902      3.20678e+6 
        920.002      2.55699e+6 
        920.102      1.82507e+6 
        920.165       1.4645e+6 
        920.189      1.39956e+6 
        920.202       1.3828e+6 
        920.215      1.37732e+6 
        920.265      1.46614e+6 
        920.366      2.11884e+6 
        920.466      2.82207e+6 
        920.566      3.47674e+6 
        920.666      4.09758e+6 
        920.766      4.63523e+6 
        920.866       5.1201e+6 
        920.966      5.49867e+6 
        921.066      5.78471e+6 
        921.166      5.97707e+6 
        921.266       6.0672e+6 
        921.367       6.0677e+6 
        921.467      5.96962e+6 
        921.567      5.76259e+6 
        921.667      5.46103e+6 
        921.767      5.06701e+6 
        921.867      4.58104e+6 
        921.967      4.04703e+6 
        922.067      3.42839e+6 
        922.167      2.74191e+6 
        922.267      2.00186e+6 
        922.331      1.52706e+6 
        922.368      1.37751e+6 
        922.405      1.33732e+6 
        922.479      1.52954e+6 
        922.627      2.65365e+6 
         922.74      3.44762e+6 
        922.775      3.67538e+6 
         922.81      3.90783e+6 
         922.88      4.33499e+6 
         923.02      5.14109e+6 
         923.16       5.8603e+6 
        923.301      6.48962e+6 
        923.441      6.99121e+6 
        923.581      7.36009e+6 
        923.721      7.60218e+6 
        923.861      7.73328e+6 
        924.001      7.76184e+6 
        924.141      7.67777e+6 
        924.282      7.47011e+6 
        924.422      7.12856e+6 
        924.562      6.64463e+6 
        924.702      6.04389e+6 
        924.842      5.36452e+6 
        924.982      4.57579e+6 
        925.122      3.70695e+6 
        925.262      2.69089e+6 
        925.322       2.2152e+6 
        925.403      1.56175e+6 
        925.484      1.34258e+6 
        925.646      2.22278e+6 
        925.808      3.47881e+6 
         925.97      4.54453e+6 
        926.132       5.5106e+6 
         926.22      5.99529e+6 
        926.295       6.3801e+6 
        926.369      6.76567e+6 
        926.517      7.47529e+6 
        926.665      8.08765e+6 
        926.813      8.60686e+6 
        926.961       9.0378e+6 
        927.109      9.37922e+6 
        927.257      9.65135e+6 
        927.406      9.85854e+6 
        927.554      9.99821e+6 
        927.702      1.00793e+7 
         927.85      1.01016e+7 
        927.998      1.00632e+7 
        928.038      1.00392e+7 
         928.11      9.97003e+6 
        928.146      9.92772e+6 
        928.182      9.87999e+6 
        928.327      9.63241e+6 
        928.471      9.30072e+6 
        928.615      8.87534e+6 
        928.717      8.52295e+6 
        928.759      8.36314e+6 
        928.903      7.84214e+6 
        928.917      7.78719e+6 
        929.089      7.05916e+6 
        929.261      6.20505e+6 
        929.325      5.87047e+6 
        929.434      5.24916e+6 
        929.543      4.59006e+6 
        929.652      3.86658e+6 
        929.719      3.37878e+6 
        929.753      3.11586e+6 
        929.755      3.09948e+6 
        929.761      3.05018e+6 
        929.769      2.98403e+6 
        929.819      2.56314e+6 
        929.827      2.49289e+6 
        929.883      1.99343e+6 
         929.91      1.74418e+6 
        929.939      1.51905e+6 
        929.954      1.45118e+6 
        929.968      1.41423e+6 
        929.982      1.39949e+6 
        929.996      1.39417e+6 
         930.01      1.39301e+6 
        930.024      1.39459e+6 
        930.038      1.40035e+6 
        930.052      1.41552e+6 
        930.081      1.52138e+6 
        930.137      1.99876e+6 
        930.201       2.5732e+6 
        930.247      2.96504e+6 
        930.249      2.98182e+6 
        930.251      2.99862e+6 
        930.301      3.39861e+6 
        930.326      3.57761e+6 
        930.402      4.12676e+6 
        930.478      4.63397e+6 
         930.63      5.57488e+6 
        930.633      5.59288e+6 
        930.782      6.43631e+6 
        930.931      7.22987e+6 
         931.08        7.941e+6 
        931.229      8.60002e+6 
        931.379      9.27141e+6 
        931.516      9.85653e+6 
        931.528      9.90604e+6 
        931.677      1.04829e+7 
        931.838      1.10562e+7 
        931.999      1.15661e+7 
         932.16      1.19715e+7 
        932.321      1.23347e+7 
        932.483      1.26522e+7 
        932.644       1.2933e+7 
        932.805      1.31599e+7 
        932.966      1.33374e+7 
        933.127       1.3482e+7 
        933.173      1.35173e+7 
        933.265      1.35794e+7 
        933.288       1.3593e+7 
        933.403      1.36503e+7 
        933.432      1.36606e+7 
        933.542      1.36888e+7 
        933.652      1.36974e+7 
        933.762      1.36853e+7 
        933.872      1.36517e+7 
        933.982      1.35889e+7 
        934.092      1.34926e+7 
        934.202      1.33686e+7 
        934.312      1.32154e+7 
        934.413      1.30555e+7 
        934.422      1.30412e+7 
        934.533        1.285e+7 
        934.652      1.26101e+7 
        934.771      1.23352e+7 
         934.89      1.20279e+7 
        935.009      1.16835e+7 
        935.026      1.16311e+7 
        935.128      1.13238e+7 
         935.23      1.10315e+7 
        935.332      1.07209e+7 
        935.434      1.03978e+7 
        935.537       1.0057e+7 
        935.639      9.69511e+6 
        935.741      9.31649e+6 
        935.843      8.91229e+6 
        935.945      8.47394e+6 
         935.95      8.45167e+6 
        936.047       8.0088e+6 
        936.144      7.53618e+6 
        936.338      6.51987e+6 
        936.464      5.79577e+6 
        936.532      5.37457e+6 
        936.601      4.93246e+6 
        936.645      4.63366e+6 
        936.714      4.13952e+6 
        936.737      3.96727e+6 
        936.829      3.23151e+6 
        936.887      2.69947e+6 
        936.944      2.13912e+6 
        936.973      1.83493e+6 
        937.001      1.59292e+6 
        937.015       1.5339e+6 
        937.029      1.50663e+6 
        937.043      1.49977e+6 
        937.058       1.4984e+6 
        937.072      1.49834e+6 
        937.086      1.49885e+6 
        937.101      1.50071e+6 
        937.115      1.50801e+6 
        937.143      1.59533e+6 
         937.15      1.64294e+6 
        937.186      1.99603e+6 
        937.199       2.1348e+6 
         937.25      2.64303e+6 
        937.314      3.23826e+6 
        937.341      3.47162e+6 
        937.442      4.25793e+6 
        937.543      4.97657e+6 
        937.645       5.6429e+6 
        937.746      6.26063e+6 
        937.847      6.83925e+6 
        937.896      7.11125e+6 
        937.948      7.39443e+6 
            938      7.67064e+6 
        938.104       8.2043e+6 
        938.208       8.7084e+6 
        938.312      9.18831e+6 
        938.416      9.63662e+6 
         938.52      1.00649e+7 
        938.543      1.01583e+7 
        938.556      1.02111e+7 
        938.624      1.04829e+7 
        938.729       1.0884e+7 
        938.914      1.15811e+7 
        939.093      1.22549e+7 
        939.271      1.29752e+7 
        939.449      1.36527e+7 
        939.628      1.42988e+7 
        939.807      1.49251e+7 
        939.986      1.55628e+7 
        940.164      1.61676e+7 
        940.343      1.67158e+7 
        940.521      1.72286e+7 
         940.58      1.73908e+7 
         940.66      1.76072e+7 
          940.7      1.77133e+7 
         940.74      1.78172e+7 
        940.901      1.81946e+7 
        941.061       1.8549e+7 
        941.221      1.88798e+7 
        941.381      1.91807e+7 
        941.541      1.94359e+7 
        941.701      1.96741e+7 
        942.022      2.00985e+7 
        942.342      2.04479e+7 
        942.662      2.07026e+7 
        942.917      2.08407e+7 
        942.982      2.08662e+7 
        943.048      2.08875e+7 
        943.178      2.09201e+7 
        943.438      2.09068e+7 
        943.698      2.08011e+7 
        943.828      2.07128e+7 
        943.958      2.06006e+7 
        944.088      2.04593e+7 
        944.219      2.02838e+7 
        944.349      2.00806e+7 
        944.479      1.98494e+7 
        944.609      1.95906e+7 
        944.691      1.94134e+7 
        944.739      1.93046e+7 
        944.845      1.90772e+7 
        944.999      1.87248e+7 
        945.153      1.83414e+7 
        945.308      1.79286e+7 
        945.462      1.75028e+7 
        945.616      1.70538e+7 
         945.77      1.65768e+7 
        945.924      1.60891e+7 
        946.232      1.51462e+7 
        946.541      1.42066e+7 
        946.849      1.32381e+7 
        947.108      1.23772e+7 
        947.157      1.22094e+7 
        947.208      1.20325e+7 
        947.308      1.16782e+7 
        947.509      1.09323e+7 
        947.709      1.01248e+7 
        947.735      1.00144e+7 
        947.909      9.21878e+6 
        948.083      8.33735e+6 
        948.257      7.36694e+6 
        948.317      7.01056e+6 
        948.431      6.29179e+6 
        948.546      5.50545e+6 
         948.66      4.64054e+6 
        948.727      4.08709e+6 
        948.761      3.79083e+6 
        948.771      3.69778e+6 
        948.774      3.66954e+6 
        948.777      3.64129e+6 
        948.827      3.13879e+6 
        948.835      3.05464e+6 
        948.893      2.40863e+6 
        948.922      2.05101e+6 
        948.951      1.76214e+6 
        948.966      1.71205e+6 
         948.98       1.6996e+6 
        948.994      1.69848e+6 
        949.009      1.69864e+6 
        949.023      1.69887e+6 
        949.037      1.69913e+6 
        949.052      1.69951e+6 
        949.066      1.70112e+6 
        949.095      1.76476e+6 
        949.153       2.4149e+6 
         949.23      3.26578e+6 
        949.258      3.55314e+6 
        949.269      3.65845e+6 
         949.28      3.76297e+6 
         949.33      4.20377e+6 
         949.36      4.45817e+6 
         949.43      5.02114e+6 
          949.5      5.55346e+6 
         949.64      6.53288e+6 
        949.781      7.41893e+6 
        949.795       7.5025e+6 
        949.879      7.99799e+6 
        949.921       8.2382e+6 
        949.963      8.47451e+6 
        950.131      9.36675e+6 
        950.299      1.01826e+7 
        950.467      1.09233e+7 
        950.635      1.16206e+7 
        950.719      1.19556e+7 
        950.804      1.22832e+7 
        950.888      1.26051e+7 
        951.056      1.32362e+7 
        951.392      1.44634e+7 
         951.56      1.50675e+7 
        951.728      1.56671e+7 
        951.896      1.63132e+7 
        952.065      1.69599e+7 
        952.233      1.76366e+7 
        952.401      1.83477e+7 
        952.688      1.95471e+7 
        952.737      1.97591e+7 
        952.788      1.99801e+7 
        952.888       2.0413e+7 
        953.089      2.12847e+7 
        953.489      2.31246e+7 
        953.889      2.50575e+7 
         954.29      2.69436e+7 
         954.49      2.78675e+7 
         954.69      2.87805e+7 
         954.89      2.96467e+7 
        954.967      2.99467e+7 
         955.09      3.04202e+7 
        955.229      3.09447e+7 
        955.491      3.19107e+7 
        955.752      3.28447e+7 
        956.014      3.36936e+7 
        956.537      3.53913e+7 
        957.061      3.69875e+7 
        957.584       3.8466e+7 
        957.974      3.94817e+7 
        958.108      3.98128e+7 
        958.302      4.02787e+7 
        958.631      4.10201e+7 
         958.96      4.16952e+7 
        959.289      4.22984e+7 
        959.463      4.25833e+7 
        959.618      4.28177e+7 
        959.946      4.32588e+7 
         960.43      4.37504e+7 
        960.671      4.39867e+7 
        960.913      4.41629e+7 
        961.154      4.42764e+7 
        961.397      4.43279e+7 
        961.638      4.43112e+7 
         961.88       4.4228e+7 
        962.121      4.40787e+7 
        962.363       4.3856e+7 
        962.605      4.35676e+7 
        962.847      4.32082e+7 
        963.088      4.27734e+7 
         963.33      4.22752e+7 
        963.571      4.17122e+7 
        963.814      4.10895e+7 
         963.88      4.09098e+7 
        964.055      4.04134e+7 
        964.231       3.9875e+7 
        964.582      3.87296e+7 
        964.934      3.74814e+7 
        965.285      3.61516e+7 
        965.636      3.47366e+7 
        965.987      3.32817e+7 
         966.69      3.02929e+7 
        966.753      3.00174e+7 
        967.393      2.72779e+7 
        968.032      2.46078e+7 
        968.046      2.45493e+7 
        968.668      2.20057e+7 
        968.672      2.19894e+7 
        968.983      2.07252e+7 
        969.297      1.94382e+7 
        969.611      1.81177e+7 
        969.876      1.69674e+7 
        969.927      1.67443e+7 
        969.977      1.65196e+7 
        970.077      1.60592e+7 
        970.277      1.51057e+7 
        970.477      1.40948e+7 
         970.48      1.40791e+7 
        970.677      1.29942e+7 
        970.874      1.17816e+7 
        971.071      1.04031e+7 
         971.19      9.46119e+6 
        971.269      8.77108e+6 
        971.348      8.02319e+6 
        971.427      7.21021e+6 
        971.467       6.7729e+6 
        971.506      6.32553e+6 
        971.585      5.35183e+6 
        971.644       4.5598e+6 
        971.703      3.70837e+6 
        971.732      3.27411e+6 
        971.762      2.80989e+6 
        971.778      2.56497e+6 
        971.792       2.3668e+6 
        971.806        2.208e+6 
        971.821      2.13868e+6 
        971.827      2.13751e+6 
        971.833      2.13763e+6 
        971.836       2.1377e+6 
        971.839      2.13776e+6 
        971.851      2.13801e+6 
        971.866       2.1657e+6 
         971.88       2.2936e+6 
         971.91       2.7213e+6 
        971.969      3.62763e+6 
        972.037      4.61773e+6 
        972.087      5.29544e+6 
        972.137      5.93409e+6 
         972.15      6.09274e+6 
        972.237      7.09975e+6 
        972.324      8.01285e+6 
        972.499       9.5987e+6 
        972.548      9.99517e+6 
        972.673      1.09269e+7 
        972.798      1.17602e+7 
        972.923      1.25138e+7 
        973.048      1.31992e+7 
        973.173      1.38319e+7 
        973.298        1.442e+7 
        973.423      1.49803e+7 
        973.548      1.55143e+7 
        973.601      1.57344e+7 
        973.673      1.60287e+7 
        973.746       1.6317e+7 
         973.89      1.68831e+7 
        974.178      1.79513e+7 
        974.466      1.89934e+7 
        974.754      2.00107e+7 
        975.043      2.09962e+7 
        975.556      2.27162e+7 
        975.598       2.2851e+7 
        975.619      2.29187e+7 
         975.64      2.29865e+7 
        975.724      2.32595e+7 
        975.892      2.38155e+7 
        976.228      2.49101e+7 
        976.565      2.60637e+7 
        976.733      2.66819e+7 
        976.901      2.73355e+7 
        977.069      2.80335e+7 
        977.237      2.87835e+7 
        977.405      2.94912e+7 
        977.574      3.01881e+7 
         977.91      3.17216e+7 
        978.246      3.32547e+7 
        978.414      3.40725e+7 
        978.582      3.49461e+7 
         978.75      3.58965e+7 
        978.919      3.69351e+7 
        979.087       3.8073e+7 
        979.105      3.82015e+7 
        979.205      3.89413e+7 
        979.255      3.93296e+7 
        979.305      3.97314e+7 
        979.505      4.11699e+7 
        979.705      4.27725e+7 
        979.905      4.45839e+7 
        980.105      4.61877e+7 
        980.306      4.76712e+7 
        980.506      4.92727e+7 
        980.706      5.08894e+7 
        980.906      5.22252e+7 
        981.106      5.36132e+7 
        981.506      5.64481e+7 
        982.307      6.21369e+7 
        982.707      6.49735e+7 
        983.108       6.7897e+7 
        983.508      7.09887e+7 
        983.863      7.39478e+7 
        983.893      7.42063e+7 
        983.908      7.43361e+7 
        983.923      7.44658e+7 
        983.983      7.49936e+7 
        984.103      7.59998e+7 
        984.344      7.79451e+7 
        984.824      8.19183e+7 
        984.951      8.29098e+7 
        985.785      8.96887e+7 
        986.202      9.32004e+7 
         986.41      9.49204e+7 
        986.618      9.66596e+7 
        986.722      9.75245e+7 
        986.826      9.81584e+7 
        986.931      9.86554e+7 
        987.035      9.91449e+7 
         987.14      9.96262e+7 
        987.244        1.001e+8 
