# Koester WD models
# teff = 17250 K (value for the effective temperature for the model. Temperatures are given in K)
# logg = 8.75 log(cm/s2) (value for Log(G) for the model.)
#
# column 1: WAVELENGTH (ANGSTROM), Wavelength in Angstrom
# column 2: FLUX (ERG/CM2/S/A), Flux in erg/cm2/s/A
         899.23      1.67918e+6 
        904.235      1.76502e+6 
         908.45      1.83975e+6 
        909.241      1.85401e+6 
        910.032      1.86834e+6 
        911.193      1.88949e+6 
        911.613      1.89712e+6 
        911.824       1.9009e+6 
        911.929      1.90278e+6 
        912.034      1.90464e+6 
        912.139      1.93261e+6 
        912.244       1.9605e+6 
        912.349      1.98821e+6 
        912.454      2.01555e+6 
        912.559      2.04267e+6 
        912.664      2.06946e+6 
         912.77       2.0957e+6 
        912.875      2.12095e+6 
        912.886      2.12351e+6 
        913.085      2.16452e+6 
        913.284      2.19559e+6 
        913.339      2.20086e+6 
        913.435      2.20951e+6 
        913.483      2.21556e+6 
        913.531      2.22066e+6 
        913.625      2.22405e+6 
        913.724      2.22312e+6 
        913.822      2.22725e+6 
        913.871      2.22957e+6 
        914.018      2.21627e+6 
        914.165      2.18455e+6 
        914.312      2.21872e+6 
        914.343      2.21923e+6 
        914.459      2.14662e+6 
        914.575      2.07159e+6 
        914.692      2.16083e+6 
        914.808      2.22559e+6 
        914.924      2.09551e+6 
        915.009      1.93776e+6 
         915.04      1.89984e+6 
        915.071      1.88777e+6 
        915.133      1.94742e+6 
        915.257      2.19897e+6 
        915.381      2.28228e+6 
        915.505      2.04377e+6 
        915.609      1.75551e+6 
        915.617      1.73997e+6 
         915.63       1.7127e+6 
        915.643      1.69282e+6 
        915.677      1.67202e+6 
        915.745      1.77105e+6 
        915.881      2.22358e+6 
        916.017      2.48238e+6 
        916.153      2.35208e+6 
        916.289      1.88127e+6 
        916.379      1.55061e+6 
        916.421      1.48985e+6 
        916.425      1.48875e+6 
        916.429       1.4885e+6 
        916.479      1.55617e+6 
         916.58      1.95439e+6 
         916.68      2.39525e+6 
         916.78       2.7139e+6 
         916.88      2.85709e+6 
         916.98      2.78235e+6 
         917.08      2.51793e+6 
         917.18      2.08901e+6 
        917.182      2.07907e+6 
         917.28        1.584e+6 
        917.378      1.33023e+6 
        917.575      2.11374e+6 
        917.771       3.0106e+6 
        917.967      3.40203e+6 
        918.163      3.13071e+6 
        918.359        2.288e+6 
         918.51      1.46173e+6 
        918.556      1.27964e+6 
        918.602      1.21858e+6 
        918.694      1.46537e+6 
        918.878      2.51386e+6 
        919.062      3.42983e+6 
        919.201      3.90704e+6 
        919.241      4.00179e+6 
        919.246      4.01216e+6 
        919.251      4.02218e+6 
        919.301      4.10138e+6 
        919.402      4.16091e+6 
        919.502      4.10914e+6 
        919.602      3.91986e+6 
        919.702      3.60793e+6 
        919.802      3.19579e+6 
        919.902      2.69807e+6 
        920.002      2.14014e+6 
        920.102      1.51529e+6 
        920.165      1.22119e+6 
        920.189      1.17101e+6 
        920.202      1.15766e+6 
        920.215      1.15335e+6 
        920.265      1.22258e+6 
        920.366      1.76519e+6 
        920.466      2.36629e+6 
        920.566      2.92882e+6 
        920.666      3.46584e+6 
        920.766      3.93192e+6 
        920.866      4.35089e+6 
        920.966      4.67698e+6 
        921.066      4.92319e+6 
        921.166      5.08765e+6 
        921.266      5.16468e+6 
        921.367      5.16534e+6 
        921.467      5.08168e+6 
        921.567      4.90525e+6 
        921.667      4.64629e+6 
        921.767      4.30697e+6 
        921.867      3.88838e+6 
        921.967      3.42531e+6 
        922.067      2.89147e+6 
        922.167      2.30392e+6 
        922.267      1.67133e+6 
        922.331       1.2754e+6 
        922.368      1.15845e+6 
        922.405       1.1292e+6 
        922.479      1.27751e+6 
        922.627      2.22781e+6 
         922.74      2.90775e+6 
        922.775       3.1047e+6 
         922.81      3.30521e+6 
         922.88      3.67547e+6 
         923.02      4.36974e+6 
         923.16      4.98879e+6 
        923.301      5.52553e+6 
        923.441      5.95391e+6 
        923.581      6.26679e+6 
        923.721      6.47212e+6 
        923.861       6.5838e+6 
        924.001      6.60891e+6 
        924.141      6.53809e+6 
        924.282      6.36289e+6 
        924.422      6.07304e+6 
        924.562      5.65832e+6 
        924.702      5.14709e+6 
        924.842      4.56304e+6 
        924.982      3.88492e+6 
        925.122      3.13449e+6 
        925.262      2.26204e+6 
        925.322      1.85609e+6 
        925.403      1.30765e+6 
        925.484      1.14029e+6 
        925.646      1.86255e+6 
        925.808      2.93772e+6 
         925.97      3.85762e+6 
        926.132       4.6887e+6 
         926.22      5.10512e+6 
        926.295       5.4347e+6 
        926.369       5.7625e+6 
        926.517      6.36908e+6 
        926.665      6.89068e+6 
        926.813      7.33009e+6 
        926.961       7.6936e+6 
        927.109      7.98059e+6 
        927.257      8.20895e+6 
        927.406      8.38334e+6 
        927.554      8.50115e+6 
        927.702      8.56979e+6 
         927.85       8.5893e+6 
        927.998      8.55826e+6 
        928.038      8.53844e+6 
         928.11      8.48045e+6 
        928.146      8.44488e+6 
        928.182      8.40477e+6 
        928.327      8.19664e+6 
        928.471      7.91509e+6 
        928.615      7.55496e+6 
        928.717      7.25705e+6 
        928.759      7.12177e+6 
        928.903      6.68094e+6 
        928.917      6.63442e+6 
        929.089      6.01461e+6 
        929.261      5.28589e+6 
        929.325      4.99846e+6 
        929.434      4.46389e+6 
        929.543      3.89689e+6 
        929.652      3.27266e+6 
        929.719      2.85296e+6 
        929.753      2.62689e+6 
        929.755      2.61293e+6 
        929.761      2.57081e+6 
        929.769      2.51467e+6 
        929.819      2.15409e+6 
        929.827       2.0947e+6 
        929.883      1.67009e+6 
         929.91      1.46139e+6 
        929.939      1.28035e+6 
        929.954       1.2283e+6 
        929.968      1.20131e+6 
        929.982      1.19149e+6 
        929.996      1.18836e+6 
         930.01      1.18769e+6 
        930.024      1.18873e+6 
        930.038      1.19223e+6 
        930.052      1.20243e+6 
        930.081      1.28235e+6 
        930.137      1.67464e+6 
        930.201      2.16269e+6 
        930.247      2.49865e+6 
        930.249      2.51293e+6 
        930.251      2.52718e+6 
        930.301         2.87e+6 
        930.326        3.024e+6 
        930.402      3.49703e+6 
        930.478      3.93481e+6 
         930.63      4.74512e+6 
        930.633      4.76058e+6 
        930.782      5.48522e+6 
        930.931      6.16192e+6 
         931.08      6.76834e+6 
        931.229       7.3272e+6 
        931.379      7.89602e+6 
        931.516      8.39182e+6 
        931.528      8.43408e+6 
        931.677      8.92354e+6 
        931.838      9.40841e+6 
        931.999      9.83928e+6 
         932.16      1.01793e+7 
        932.321      1.04842e+7 
        932.483      1.07502e+7 
        932.644      1.09854e+7 
        932.805      1.11763e+7 
        932.966      1.13258e+7 
        933.127      1.14475e+7 
        933.173      1.14772e+7 
        933.265      1.15295e+7 
        933.288      1.15411e+7 
        933.403      1.15895e+7 
        933.432      1.15982e+7 
        933.542      1.16225e+7 
        933.652      1.16306e+7 
        933.762      1.16214e+7 
        933.872      1.15944e+7 
        933.982      1.15425e+7 
        934.092      1.14621e+7 
        934.202      1.13581e+7 
        934.312      1.12298e+7 
        934.413      1.10954e+7 
        934.422      1.10833e+7 
        934.533      1.09217e+7 
        934.652       1.0719e+7 
        934.771      1.04852e+7 
         934.89       1.0225e+7 
        935.009      9.93296e+6 
        935.026      9.88863e+6 
        935.128      9.62892e+6 
         935.23      9.38356e+6 
        935.332      9.12344e+6 
        935.434      8.85191e+6 
        935.537      8.56376e+6 
        935.639      8.25821e+6 
        935.741      7.93811e+6 
        935.843      7.59474e+6 
        935.945      7.22265e+6 
         935.95       7.2038e+6 
        936.047      6.82759e+6 
        936.144      6.42365e+6 
        936.338      5.55522e+6 
        936.464      4.93497e+6 
        936.532      4.57174e+6 
        936.601      4.19145e+6 
        936.645      3.93221e+6 
        936.714      3.50756e+6 
        936.737      3.35849e+6 
        936.829      2.72691e+6 
        936.887      2.27248e+6 
        936.944      1.79638e+6 
        936.973      1.54269e+6 
        937.001      1.34782e+6 
        937.015      1.30374e+6 
        937.029      1.28507e+6 
        937.043      1.28113e+6 
        937.058      1.28046e+6 
        937.072      1.28055e+6 
        937.086      1.28085e+6 
        937.101      1.28194e+6 
        937.115      1.28627e+6 
        937.143       1.3499e+6 
         937.15      1.38732e+6 
        937.186      1.67661e+6 
        937.199      1.79269e+6 
         937.25       2.2243e+6 
        937.314      2.73278e+6 
        937.341      2.93371e+6 
        937.442      3.60963e+6 
        937.543      4.22962e+6 
        937.645      4.80258e+6 
        937.746      5.33508e+6 
        937.847       5.8313e+6 
        937.896      6.06396e+6 
        937.948      6.30489e+6 
            938      6.54014e+6 
        938.104      6.99626e+6 
        938.208      7.42475e+6 
        938.312      7.83256e+6 
        938.416      8.21354e+6 
         938.52      8.57579e+6 
        938.624      8.92913e+6 
        938.729      9.26874e+6 
        938.752       9.3419e+6 
        938.833      9.59995e+6 
        938.881       9.7515e+6 
        938.914      9.85477e+6 
        939.076      1.03643e+7 
        939.271      1.10348e+7 
        939.466      1.16626e+7 
        939.661      1.22558e+7 
        939.857      1.28389e+7 
        940.052      1.34178e+7 
        940.247      1.39571e+7 
        940.442      1.44387e+7 
        940.534       1.4657e+7 
        940.637      1.48939e+7 
         940.74      1.51225e+7 
        940.947      1.55302e+7 
        941.153      1.59056e+7 
        941.359      1.62462e+7 
        941.565      1.65225e+7 
        941.771      1.67755e+7 
        941.978      1.70044e+7 
        942.184      1.72093e+7 
         942.39      1.73812e+7 
        942.596      1.75196e+7 
        942.802      1.76267e+7 
        942.891      1.76627e+7 
        942.969      1.76891e+7 
        943.009      1.77004e+7 
        943.048      1.77104e+7 
        943.204      1.77406e+7 
         943.36      1.77375e+7 
        943.516      1.77073e+7 
        943.672      1.76497e+7 
        943.828      1.75631e+7 
        943.984      1.74471e+7 
        944.141      1.72931e+7 
        944.297      1.71016e+7 
        944.453      1.68766e+7 
        944.609      1.66177e+7 
        944.765      1.63292e+7 
        944.847       1.6182e+7 
        945.077      1.57285e+7 
        945.308      1.52188e+7 
        945.538      1.46743e+7 
        945.759      1.41042e+7 
        945.768      1.40799e+7 
        945.998      1.34773e+7 
        946.109      1.31945e+7 
        946.459      1.22917e+7 
        946.634      1.18408e+7 
        946.809      1.13758e+7 
        946.983      1.08951e+7 
        947.108      1.05418e+7 
        947.158      1.03978e+7 
        947.208      1.02521e+7 
        947.308      9.95445e+6 
        947.509      9.32466e+6 
        947.709      8.64114e+6 
        947.735      8.54695e+6 
        947.909      7.87117e+6 
        948.083      7.11853e+6 
        948.257      6.28812e+6 
        948.317      5.98275e+6 
        948.431      5.36358e+6 
        948.546      4.68578e+6 
         948.66       3.9389e+6 
        948.727      3.46232e+6 
        948.761      3.20709e+6 
        948.771      3.12712e+6 
        948.774      3.10293e+6 
        948.777      3.07876e+6 
        948.827      2.64842e+6 
        948.835      2.57722e+6 
        948.893      2.02871e+6 
        948.922      1.72988e+6 
        948.951      1.49886e+6 
        948.966       1.4626e+6 
         948.98      1.45518e+6 
        948.994      1.45471e+6 
        949.009      1.45488e+6 
        949.023       1.4551e+6 
        949.037      1.45531e+6 
        949.052       1.4556e+6 
        949.066       1.4565e+6 
        949.095      1.50113e+6 
        949.153      2.03409e+6 
         949.23      2.75711e+6 
        949.258      3.00383e+6 
        949.269      3.09351e+6 
         949.28      3.18294e+6 
         949.33      3.56341e+6 
         949.36      3.78066e+6 
         949.43       4.2677e+6 
          949.5      4.72741e+6 
         949.64      5.57275e+6 
        949.781      6.33351e+6 
        949.795      6.40599e+6 
        949.879      6.83161e+6 
        949.921      7.03613e+6 
        949.963      7.23788e+6 
        950.131      8.00051e+6 
        950.299      8.69417e+6 
        950.467      9.32368e+6 
        950.635       9.9127e+6 
        950.719      1.01965e+7 
        950.804      1.04723e+7 
        950.888      1.07433e+7 
        951.056      1.12747e+7 
        951.392      1.23096e+7 
         951.56      1.28181e+7 
        951.728      1.33221e+7 
        951.896      1.38642e+7 
        952.065       1.4407e+7 
        952.233       1.4976e+7 
        952.401      1.55763e+7 
        952.688      1.65881e+7 
        952.737      1.67661e+7 
        952.788      1.69514e+7 
        952.888       1.7315e+7 
        953.089      1.80436e+7 
        953.489       1.9579e+7 
        953.889      2.11923e+7 
         954.29      2.27648e+7 
         954.49      2.35368e+7 
         954.69      2.42989e+7 
         954.89      2.50244e+7 
        954.967      2.52772e+7 
         955.09      2.56761e+7 
        955.229      2.61174e+7 
        955.491      2.69294e+7 
        955.752      2.77139e+7 
        956.014       2.8424e+7 
        956.537      2.98829e+7 
        957.061      3.12562e+7 
        957.584      3.25233e+7 
        957.974       3.3392e+7 
        958.108       3.3675e+7 
        958.302      3.40725e+7 
        958.631      3.47033e+7 
         958.96      3.52751e+7 
        959.289      3.57834e+7 
        959.463      3.60121e+7 
        959.618      3.61996e+7 
        959.946      3.65499e+7 
         960.43      3.69338e+7 
        960.671      3.71066e+7 
        960.913      3.72307e+7 
        961.154      3.73039e+7 
        961.397      3.73271e+7 
        961.638      3.72948e+7 
         961.88      3.72087e+7 
        962.121      3.70692e+7 
        962.363      3.68704e+7 
        962.605      3.66181e+7 
        962.847       3.6308e+7 
        963.088      3.59367e+7 
         963.33      3.55154e+7 
        963.396      3.53913e+7 
        963.571      3.50394e+7 
        963.814      3.45161e+7 
        964.231      3.34979e+7 
        964.648      3.23562e+7 
        965.066      3.10974e+7 
        965.483      2.97509e+7 
          965.9      2.83293e+7 
        966.273      2.70299e+7 
        966.318      2.68713e+7 
        967.152      2.39167e+7 
        968.032      2.08685e+7 
        968.526      1.91808e+7 
        968.668      1.87039e+7 
        968.912      1.78743e+7 
        968.983      1.76345e+7 
        969.297      1.65565e+7 
        969.611      1.54462e+7 
        969.876      1.44775e+7 
        969.927      1.42898e+7 
        969.977      1.40996e+7 
        970.077      1.37115e+7 
        970.277      1.29076e+7 
        970.477      1.20552e+7 
         970.48      1.20419e+7 
        970.677      1.11228e+7 
        970.874      1.00911e+7 
        971.071      8.91336e+6 
         971.19      8.10707e+6 
        971.269      7.51136e+6 
        971.348      6.86746e+6 
        971.427      6.16418e+6 
        971.467       5.7854e+6 
        971.506      5.39609e+6 
        971.585      4.55361e+6 
        971.644      3.86988e+6 
        971.703      3.13836e+6 
        971.732      2.76722e+6 
        971.762       2.3732e+6 
        971.778      2.17061e+6 
        971.792      2.00777e+6 
        971.806      1.88562e+6 
        971.821      1.83792e+6 
        971.827      1.83746e+6 
        971.833      1.83757e+6 
        971.836      1.83762e+6 
        971.839      1.83768e+6 
        971.851      1.83789e+6 
        971.866       1.8556e+6 
         971.88      1.95054e+6 
         971.91      2.29918e+6 
        971.969      3.07013e+6 
        972.037      3.91961e+6 
        972.087       4.5053e+6 
        972.137      5.05828e+6 
         972.15      5.19641e+6 
        972.237      6.06902e+6 
        972.324      6.85904e+6 
        972.499      8.22676e+6 
        972.548      8.56618e+6 
        972.673      9.36572e+6 
        972.798      1.00771e+7 
        972.923      1.07204e+7 
        973.048       1.1304e+7 
        973.173       1.1841e+7 
        973.298      1.23403e+7 
        973.423      1.28141e+7 
        973.548      1.32654e+7 
        973.601      1.34512e+7 
        973.673      1.36995e+7 
        973.746      1.39437e+7 
         973.89      1.44212e+7 
        974.178      1.53246e+7 
        974.466      1.62033e+7 
        974.754      1.70603e+7 
        975.043      1.78877e+7 
        975.556      1.93283e+7 
        975.598      1.94409e+7 
        975.619      1.94973e+7 
         975.64      1.95539e+7 
        975.724      1.97821e+7 
        975.892      2.02466e+7 
        976.228      2.11604e+7 
        976.565      2.21185e+7 
        976.733       2.2632e+7 
        976.901      2.31744e+7 
        977.069      2.37523e+7 
        977.237       2.4375e+7 
        977.405      2.49604e+7 
        977.574      2.55367e+7 
         977.91      2.68035e+7 
        978.246      2.80697e+7 
        978.414      2.87448e+7 
        978.582      2.94666e+7 
         978.75      3.02509e+7 
        978.919       3.1107e+7 
        979.087      3.20458e+7 
        979.105      3.21517e+7 
        979.205      3.27621e+7 
        979.255      3.30816e+7 
        979.305      3.34118e+7 
        979.505      3.45977e+7 
        979.705      3.59188e+7 
        979.905      3.74088e+7 
        980.105      3.87292e+7 
        980.306      3.99504e+7 
        980.506      4.12648e+7 
        980.706      4.25928e+7 
        980.906      4.36936e+7 
        981.106      4.48352e+7 
        981.506      4.71588e+7 
        982.307      5.18196e+7 
        982.707      5.41413e+7 
        983.108      5.65282e+7 
        983.508      5.90588e+7 
        983.863      6.14753e+7 
        983.893      6.16861e+7 
        983.908       6.1792e+7 
        983.923      6.18982e+7 
        983.983      6.23254e+7 
        984.103      6.31388e+7 
        984.344      6.47086e+7 
        984.824      6.79087e+7 
        984.951      6.87022e+7 
        985.785      7.41482e+7 
        986.202      7.69718e+7 
         986.41      7.83488e+7 
        986.618      7.97396e+7 
        986.722      8.04355e+7 
        986.826       8.0945e+7 
        986.931      8.13431e+7 
        987.035      8.17348e+7 
         987.14      8.21203e+7 
        987.244      8.24995e+7 
        987.348      8.28743e+7 
