# Koester WD models
# teff = 17000 K (value for the effective temperature for the model. Temperatures are given in K)
# logg = 8.5 log(cm/s2) (value for Log(G) for the model.)
#
# column 1: WAVELENGTH (ANGSTROM), Wavelength in Angstrom
# column 2: FLUX (ERG/CM2/S/A), Flux in erg/cm2/s/A
         899.23      1.34973e+6 
        904.235      1.42036e+6 
         908.45      1.48192e+6 
        909.241      1.49368e+6 
        910.032      1.50549e+6 
        911.193      1.52297e+6 
        911.613      1.52928e+6 
        911.824       1.5324e+6 
        911.929      1.53395e+6 
        912.034      1.53549e+6 
        912.139      1.56464e+6 
        912.244       1.5938e+6 
        912.349       1.6229e+6 
        912.454      1.65188e+6 
        912.559       1.6807e+6 
        912.664      1.70908e+6 
         912.77      1.73688e+6 
        912.875      1.76369e+6 
        912.886       1.7664e+6 
         912.98      1.78805e+6 
        913.085      1.80674e+6 
        913.284      1.82845e+6 
        913.339      1.83095e+6 
        913.435      1.83267e+6 
        913.483      1.83508e+6 
        913.531      1.83883e+6 
        913.625      1.84231e+6 
        913.724      1.83003e+6 
        913.822       1.8208e+6 
        913.871      1.82715e+6 
        914.018      1.82314e+6 
        914.165      1.74262e+6 
        914.312      1.83402e+6 
        914.343      1.84249e+6 
        914.459      1.73278e+6 
        914.575      1.60235e+6 
        914.692      1.75345e+6 
        914.808      1.87666e+6 
        914.924      1.71535e+6 
        915.009      1.49554e+6 
         915.04      1.44134e+6 
        915.071      1.42449e+6 
        915.133      1.50457e+6 
        915.257      1.84839e+6 
        915.381      1.97001e+6 
        915.505      1.70476e+6 
        915.609      1.35728e+6 
        915.617      1.33801e+6 
         915.63      1.30421e+6 
        915.643      1.28061e+6 
        915.677       1.2532e+6 
        915.745      1.36635e+6 
        915.881      1.88775e+6 
        916.017      2.18117e+6 
        916.153      2.04955e+6 
        916.289      1.54984e+6 
        916.379      1.18632e+6 
        916.421      1.12287e+6 
        916.425      1.12167e+6 
        916.429       1.1213e+6 
        916.479      1.18916e+6 
         916.58      1.61587e+6 
         916.68        2.071e+6 
         916.78      2.39814e+6 
         916.88        2.545e+6 
         916.98      2.47958e+6 
         917.08      2.22048e+6 
         917.18      1.79747e+6 
        917.182      1.78735e+6 
         917.28      1.28221e+6 
        917.378      1.02066e+6 
        917.575      1.81346e+6 
        917.771       2.6825e+6 
        917.967       3.0599e+6 
        918.163      2.81053e+6 
        918.359       2.0185e+6 
         918.51      1.19617e+6 
        918.556      1.01205e+6 
        918.602          955984 
        918.694      1.19901e+6 
        918.878      2.22519e+6 
        919.062      3.08279e+6 
        919.201      3.52817e+6 
        919.241      3.61534e+6 
        919.246      3.62493e+6 
        919.251      3.63423e+6 
        919.301       3.7072e+6 
        919.402      3.76429e+6 
        919.502      3.71782e+6 
        919.602      3.54818e+6 
        919.702      3.26584e+6 
        919.802      2.88066e+6 
        919.902      2.42147e+6 
        920.002      1.89532e+6 
        920.102      1.27708e+6 
        920.165          980548 
        920.189          936594 
        920.202          925252 
        920.215          921922 
        920.265          981682 
        920.366      1.52368e+6 
        920.466       2.1106e+6 
        920.566      2.63448e+6 
        920.666      3.12768e+6 
        920.766      3.55512e+6 
        920.866      3.92765e+6 
        920.966      4.21903e+6 
        921.066      4.43279e+6 
        921.166      4.57435e+6 
        921.266      4.64107e+6 
        921.367      4.64233e+6 
        921.467       4.5708e+6 
        921.567      4.42129e+6 
        921.667      4.19707e+6 
        921.767      3.89407e+6 
        921.867      3.52418e+6 
        921.967      3.10186e+6 
        922.067      2.61111e+6 
        922.167      2.06445e+6 
        922.267      1.44466e+6 
        922.331      1.04995e+6 
        922.368          939119 
        922.405          915878 
        922.479      1.05171e+6 
        922.627      1.99162e+6 
         922.74      2.62532e+6 
        922.775      2.80554e+6 
         922.81      2.98875e+6 
         922.88      3.33021e+6 
         923.02       3.9486e+6 
         923.16      4.49587e+6 
        923.301       4.9574e+6 
        923.441      5.32318e+6 
        923.581      5.59028e+6 
        923.721       5.7662e+6 
        923.861      5.86328e+6 
        924.001      5.88694e+6 
        924.141      5.82869e+6 
        924.282      5.68056e+6 
        924.422      5.43078e+6 
        924.562      5.07166e+6 
        924.702      4.63564e+6 
        924.842      4.12409e+6 
        924.982      3.52528e+6 
        925.122      2.83964e+6 
        925.262      2.02723e+6 
        925.322       1.6343e+6 
        925.403      1.08725e+6 
        925.484          934071 
        925.646      1.64005e+6 
        925.808      2.65946e+6 
         925.97      3.50017e+6 
        926.132      4.23518e+6 
         926.22      4.60001e+6 
        926.295      4.88486e+6 
        926.369      5.16399e+6 
        926.517      5.68745e+6 
        926.665      6.13685e+6 
        926.813      6.51271e+6 
        926.961      6.82125e+6 
        927.109      7.06064e+6 
        927.257      7.25312e+6 
        927.406      7.40147e+6 
        927.554      7.50209e+6 
        927.702      7.56178e+6 
         927.85      7.57963e+6 
        927.998      7.55534e+6 
        928.038      7.53897e+6 
         928.11      7.48949e+6 
        928.146      7.45896e+6 
        928.182      7.42449e+6 
        928.327      7.24498e+6 
        928.471      6.99928e+6 
        928.615      6.68697e+6 
        928.717      6.43458e+6 
        928.759      6.32088e+6 
        928.903      5.94883e+6 
        928.917       5.9093e+6 
        929.089      5.38249e+6 
        929.261      4.75873e+6 
        929.325      4.50907e+6 
        929.434       4.0394e+6 
        929.543      3.53439e+6 
        929.652      2.96636e+6 
        929.719      2.57979e+6 
        929.753      2.36981e+6 
        929.755      2.35682e+6 
        929.761       2.3173e+6 
        929.769      2.26393e+6 
        929.819      1.92343e+6 
        929.827       1.8657e+6 
        929.883      1.45331e+6 
         929.91      1.24297e+6 
        929.939      1.06139e+6 
        929.954      1.01002e+6 
        929.968          987594 
        929.982          980277 
        929.996          978402 
         930.01          978113 
        930.024          978713 
        930.038          980899 
        930.052          988530 
        930.081      1.06308e+6 
        930.137      1.45732e+6 
        930.201      1.93119e+6 
        930.247      2.24834e+6 
        930.249      2.26181e+6 
        930.251       2.2753e+6 
        930.301      2.59531e+6 
        930.326      2.73887e+6 
        930.402      3.17094e+6 
        930.478      3.56885e+6 
         930.63      4.28765e+6 
        930.633      4.30119e+6 
        930.782      4.93378e+6 
        930.931      5.51268e+6 
         931.08      6.02991e+6 
        931.229      6.50388e+6 
        931.379      6.98819e+6 
        931.516      7.41787e+6 
        931.528      7.45497e+6 
        931.677       7.8865e+6 
        931.838      8.30835e+6 
        931.999       8.6816e+6 
         932.16      8.96984e+6 
        932.321       9.2289e+6 
        932.483      9.45355e+6 
        932.644       9.6533e+6 
        932.805      9.81773e+6 
        932.966       9.9481e+6 
        933.127      1.00549e+7 
        933.173       1.0081e+7 
        933.265      1.01273e+7 
        933.288      1.01375e+7 
        933.403      1.01808e+7 
        933.432      1.01887e+7 
        933.542      1.02114e+7 
        933.652      1.02204e+7 
        933.762       1.0215e+7 
        933.872      1.01946e+7 
        933.982      1.01515e+7 
        934.092      1.00817e+7 
        934.202      9.99127e+6 
        934.312      9.87927e+6 
        934.413      9.76065e+6 
        934.422      9.74981e+6 
        934.533      9.60517e+6 
        934.652      9.42368e+6 
        934.771      9.21589e+6 
         934.89      8.98571e+6 
        935.009      8.72995e+6 
        935.026      8.69125e+6 
        935.128      8.46731e+6 
         935.23         8.26e+6 
        935.332      8.03981e+6 
        935.434      7.80736e+6 
        935.537      7.56093e+6 
        935.639      7.29883e+6 
        935.741      7.02517e+6 
        935.746      7.01131e+6 
        935.843      6.73316e+6 
        935.945      6.41589e+6 
        936.144      5.73457e+6 
        936.343      4.97534e+6 
        936.484      4.36537e+6 
        936.542      4.08969e+6 
        936.601      3.79866e+6 
        936.605      3.77802e+6 
        936.717      3.16145e+6 
        936.829      2.45651e+6 
        936.894      1.97493e+6 
        936.938      1.61797e+6 
        936.941      1.59365e+6 
        936.944      1.56937e+6 
        936.973      1.31044e+6 
        936.987      1.19848e+6 
        936.994      1.15204e+6 
        937.001      1.11788e+6 
        937.015      1.07497e+6 
        937.029      1.06029e+6 
        937.043      1.05764e+6 
        937.058      1.05738e+6 
        937.072      1.05752e+6 
        937.086      1.05771e+6 
        937.101      1.05831e+6 
        937.115       1.0613e+6 
        937.143      1.11963e+6 
         937.15      1.15402e+6 
        937.186      1.44707e+6 
        937.199      1.56557e+6 
         937.25      1.98224e+6 
        937.314      2.46153e+6 
        937.341      2.64988e+6 
        937.442      3.27225e+6 
        937.543      3.83359e+6 
        937.645      4.34322e+6 
        937.746      4.80748e+6 
        937.847      5.23471e+6 
        937.896      5.43279e+6 
        937.948      5.63828e+6 
            938      5.83843e+6 
        938.104      6.22617e+6 
        938.208      6.59313e+6 
        938.312      6.94072e+6 
        938.416      7.26496e+6 
         938.52      7.57482e+6 
        938.543       7.6424e+6 
        938.624      7.87798e+6 
        938.729      8.16886e+6 
        938.914      8.66737e+6 
        938.927      8.70183e+6 
        939.099      9.17285e+6 
        939.271      9.69178e+6 
        939.443      1.01877e+7 
        939.523      1.04113e+7 
        939.615      1.06615e+7 
        939.788      1.11147e+7 
        939.828       1.1224e+7 
         939.98      1.16296e+7 
        940.132      1.20193e+7 
        940.284      1.23798e+7 
        940.436        1.271e+7 
        940.588      1.30293e+7 
         940.74      1.33344e+7 
        940.893      1.36129e+7 
        941.045      1.38769e+7 
        941.197       1.4126e+7 
        941.349      1.43593e+7 
        941.501      1.45508e+7 
        941.653      1.47305e+7 
        941.958      1.50533e+7 
        942.262      1.53275e+7 
        942.566      1.55282e+7 
        942.693      1.55929e+7 
         942.87      1.56628e+7 
        943.048      1.57081e+7 
        943.225      1.57317e+7 
        943.402      1.57181e+7 
        943.579      1.56724e+7 
        943.756      1.55929e+7 
        943.933       1.5479e+7 
        944.111      1.53231e+7 
        944.288      1.51178e+7 
        944.465       1.4873e+7 
        944.642      1.45892e+7 
        944.685      1.45145e+7 
        944.819      1.42833e+7 
         944.84      1.42468e+7 
        944.996      1.39697e+7 
        945.151      1.36685e+7 
        945.308      1.33463e+7 
        945.619      1.26597e+7 
         945.93      1.19156e+7 
        945.947      1.18786e+7 
        946.241      1.12252e+7 
         946.25      1.12059e+7 
        946.553      1.05421e+7 
        946.856      9.85832e+6 
        947.007      9.50344e+6 
        947.158      9.13927e+6 
        947.309      8.76115e+6 
        947.461      8.36223e+6 
        947.613      7.93742e+6 
        947.764      7.48164e+6 
        947.915      6.97534e+6 
        948.017      6.60925e+6 
         948.05      6.48513e+6 
        948.066      6.42195e+6 
        948.083      6.35783e+6 
        948.149      6.09745e+6 
        948.281      5.54705e+6 
        948.413       4.9361e+6 
        948.546      4.24523e+6 
        948.579      4.05793e+6 
        948.661      3.56301e+6 
        948.678      3.45512e+6 
        948.777       2.7741e+6 
        948.835      2.30432e+6 
        948.893      1.77752e+6 
        948.922      1.46953e+6 
        948.951      1.24339e+6 
        948.966      1.20981e+6 
         948.98      1.20447e+6 
        948.994      1.20434e+6 
        949.009      1.20451e+6 
        949.023       1.2047e+6 
        949.037      1.20488e+6 
        949.052      1.20509e+6 
        949.066      1.20559e+6 
        949.095      1.24531e+6 
        949.153      1.78229e+6 
         949.23      2.47353e+6 
        949.258      2.70205e+6 
        949.269      2.78754e+6 
         949.28      2.87215e+6 
         949.33      3.22441e+6 
         949.36      3.42578e+6 
         949.43      3.86862e+6 
          949.5      4.28337e+6 
         949.64      5.03195e+6 
        949.781      5.69395e+6 
        949.795      5.75584e+6 
        949.879      6.11866e+6 
        949.921      6.29355e+6 
        949.963      6.46587e+6 
        950.131      7.11492e+6 
        950.299      7.70642e+6 
        950.467      8.24172e+6 
        950.635      8.74208e+6 
        950.719      8.98184e+6 
        950.804      9.21555e+6 
        950.888       9.4446e+6 
        951.056      9.89379e+6 
        951.392        1.077e+7 
         951.56      1.12041e+7 
        951.728       1.1635e+7 
        951.896      1.20956e+7 
        952.065      1.25611e+7 
        952.233      1.30585e+7 
        952.401       1.3598e+7 
        952.688      1.45137e+7 
        952.737      1.46738e+7 
        952.788      1.48405e+7 
        952.888      1.51683e+7 
        953.089      1.58288e+7 
        953.289      1.64952e+7 
        953.489      1.72372e+7 
        953.689      1.79898e+7 
        953.889      1.87476e+7 
         954.29      2.02373e+7 
         954.49      2.09787e+7 
         954.69      2.17185e+7 
         954.89      2.24337e+7 
        954.967      2.26884e+7 
         955.09      2.30905e+7 
        955.229      2.35373e+7 
        955.491      2.43636e+7 
        955.753      2.51655e+7 
        956.014      2.58757e+7 
        956.537      2.73474e+7 
        957.061      2.87362e+7 
        957.584      3.00278e+7 
        957.974      3.09128e+7 
        958.108      3.12007e+7 
        958.302      3.16035e+7 
        958.631      3.22415e+7 
         958.96      3.28177e+7 
        959.289      3.33257e+7 
        959.463       3.3551e+7 
        959.618      3.37341e+7 
        959.946      3.40709e+7 
         960.43       3.4424e+7 
        960.671      3.45892e+7 
        960.913      3.47011e+7 
        961.154      3.47564e+7 
        961.397      3.47564e+7 
        961.638      3.46957e+7 
         961.88      3.45761e+7 
        962.121      3.43986e+7 
        962.363      3.41573e+7 
        962.605      3.38591e+7 
        962.847      3.35016e+7 
        963.088      3.30816e+7 
         963.33      3.26113e+7 
        963.396      3.24743e+7 
        963.571      3.20879e+7 
        963.814      3.15187e+7 
        964.231      3.04275e+7 
        964.648      2.92251e+7 
        965.066      2.79302e+7 
        965.438      2.67235e+7 
        965.483      2.65728e+7 
          965.9      2.51739e+7 
        966.086       2.4549e+7 
        966.735      2.23809e+7 
        966.767      2.22731e+7 
        967.383      2.02658e+7 
          967.4      2.02144e+7 
        968.032      1.82438e+7 
        968.665      1.63371e+7 
        968.668      1.63281e+7 
        968.983      1.53956e+7 
        969.297      1.44617e+7 
        969.611      1.35052e+7 
        969.876      1.26787e+7 
        969.927       1.2519e+7 
        969.977       1.2358e+7 
        970.077      1.20308e+7 
        970.277      1.13518e+7 
        970.477      1.06315e+7 
         970.48      1.06202e+7 
        970.677       9.8416e+6 
        970.874      8.96702e+6 
        971.071      7.96557e+6 
         971.19      7.27561e+6 
        971.269      6.76583e+6 
        971.348      6.20483e+6 
        971.427      5.58578e+6 
        971.467      5.24747e+6 
        971.506      4.89928e+6 
        971.585      4.12969e+6 
        971.644      3.49493e+6 
        971.703      2.80138e+6 
        971.732       2.4448e+6 
        971.762      2.06465e+6 
        971.778      1.86716e+6 
        971.792      1.70892e+6 
        971.806      1.58343e+6 
        971.821      1.52891e+6 
        971.827        1.528e+6 
        971.833       1.5281e+6 
        971.836      1.52814e+6 
        971.839      1.52819e+6 
        971.851      1.52838e+6 
        971.866      1.55001e+6 
         971.88      1.65088e+6 
         971.91      1.99281e+6 
        971.969      2.73481e+6 
        972.037      3.54136e+6 
        972.087      4.08426e+6 
        972.137      4.59012e+6 
         972.15      4.71562e+6 
        972.237      5.50137e+6 
        972.324      6.19956e+6 
        972.499      7.38274e+6 
        972.548      7.67488e+6 
        972.673      8.35582e+6 
        972.798      8.96359e+6 
        972.923      9.51042e+6 
        973.048       1.0007e+7 
        973.173      1.04644e+7 
        973.298      1.08885e+7 
        973.423      1.12911e+7 
        973.548      1.16738e+7 
        973.601       1.1832e+7 
        973.673      1.20426e+7 
        973.746      1.22492e+7 
         973.89      1.26544e+7 
        974.178      1.34239e+7 
        974.466      1.41777e+7 
        975.043      1.56335e+7 
        975.556      1.68868e+7 
        975.598      1.69851e+7 
        975.619      1.70344e+7 
         975.64      1.70839e+7 
        975.724       1.7283e+7 
        975.892      1.76901e+7 
        976.228      1.84931e+7 
        976.565      1.93424e+7 
        976.733      1.97983e+7 
        976.901      2.02816e+7 
        977.069      2.07978e+7 
        977.237      2.13553e+7 
        977.405       2.1881e+7 
        977.574      2.23994e+7 
         977.91      2.35429e+7 
        978.078      2.41156e+7 
        978.246      2.46933e+7 
        978.414      2.53087e+7 
        978.582      2.59688e+7 
         978.75      2.66904e+7 
        978.919      2.74807e+7 
        979.087      2.83505e+7 
        979.105      2.84492e+7 
        979.205      2.90178e+7 
        979.255      2.93166e+7 
        979.305      2.96257e+7 
        979.505      3.07371e+7 
        979.705      3.19836e+7 
        979.905      3.33989e+7 
        980.105      3.46584e+7 
        980.306      3.58283e+7 
        980.506       3.7095e+7 
        980.706      3.83802e+7 
        980.906      3.94484e+7 
        981.106      4.05633e+7 
        981.506      4.28476e+7 
        982.307      4.74883e+7 
        982.707      4.98335e+7 
        983.108       5.2266e+7 
        983.508      5.48729e+7 
        983.863       5.7395e+7 
        983.893      5.76162e+7 
        983.908      5.77274e+7 
        983.923      5.78386e+7 
        983.983      5.82913e+7 
        984.103      5.91556e+7 
        984.344        6.083e+7 
        984.824      6.42779e+7 
        984.951      6.51409e+7 
        985.785      7.11197e+7 
        986.202      7.42553e+7 
         986.41      7.57985e+7 
        986.618      7.73658e+7 
        986.722      7.81452e+7 
        986.826      7.87098e+7 
        986.931      7.91455e+7 
