# Koester WD models
# teff = 17750 K (value for the effective temperature for the model. Temperatures are given in K)
# logg = 9.5 log(cm/s2) (value for Log(G) for the model.)
#
# column 1: WAVELENGTH (ANGSTROM), Wavelength in Angstrom
# column 2: FLUX (ERG/CM2/S/A), Flux in erg/cm2/s/A
         899.23      2.72067e+6 
        899.456      2.72653e+6 
        899.908      2.73827e+6 
        900.814      2.76187e+6 
        901.015      2.76712e+6 
        902.625      2.80951e+6 
        904.235      2.85236e+6 
         905.67      2.89093e+6 
        907.456      2.93944e+6 
         908.45      2.96669e+6 
        909.241      2.98847e+6 
        910.032      3.01033e+6 
        911.193      3.04249e+6 
        911.613      3.05408e+6 
        911.824      3.05985e+6 
        911.929      3.06271e+6 
        912.034      3.06556e+6 
        912.139      3.08364e+6 
        912.244      3.10157e+6 
        912.349      3.11937e+6 
        912.454      3.13702e+6 
        912.559      3.15447e+6 
        912.664      3.17169e+6 
         912.77      3.18862e+6 
        912.875      3.20552e+6 
        912.886      3.20725e+6 
        913.037      3.23072e+6 
        913.085      3.23798e+6 
        913.241      3.26063e+6 
        913.284      3.26657e+6 
        913.531      3.29779e+6 
        913.822      3.32663e+6 
        914.059      3.33904e+6 
        914.112      3.34284e+6 
        914.165      3.34504e+6 
        914.271      3.34495e+6 
        914.391      3.33794e+6 
        914.448      3.33621e+6 
        914.483      3.33515e+6 
        914.575      3.33464e+6 
        914.604       3.3354e+6 
         914.76      3.33053e+6 
        914.916      3.29245e+6 
        915.071      3.26342e+6 
        915.122      3.26873e+6 
        915.226      3.29258e+6 
        915.252      3.29817e+6 
        915.382      3.28893e+6 
        915.512      3.19082e+6 
        915.609      3.11203e+6 
        915.643      3.09578e+6 
        915.677      3.10026e+6 
        915.745      3.14715e+6 
        915.881      3.31473e+6 
        916.017      3.42079e+6 
        916.153      3.34655e+6 
        916.289      3.11647e+6 
        916.379      2.98142e+6 
        916.421      2.96124e+6 
        916.425      2.96149e+6 
        916.429      2.96217e+6 
        916.479      3.00471e+6 
         916.58      3.21372e+6 
         916.68      3.46728e+6 
         916.78      3.65801e+6 
         916.88      3.73372e+6 
         916.98      3.66517e+6 
         917.08      3.45352e+6 
         917.18      3.13319e+6 
        917.182      3.12722e+6 
         917.28      2.80194e+6 
        917.378      2.64664e+6 
        917.575      3.20455e+6 
        917.771      3.92671e+6 
        917.967       4.2223e+6 
        918.163      3.93387e+6 
        918.359      3.15011e+6 
         918.51      2.48364e+6 
        918.556      2.35181e+6 
        918.602      2.30272e+6 
        918.694      2.49425e+6 
        918.878      3.40197e+6 
        919.062      4.26986e+6 
        919.201      4.72671e+6 
        919.241      4.81474e+6 
        919.246      4.82417e+6 
        919.251      4.83321e+6 
        919.301      4.90673e+6 
        919.402      4.95432e+6 
        919.502       4.8902e+6 
        919.602      4.68807e+6 
        919.702      4.33885e+6 
        919.802      3.93343e+6 
        919.902      3.41881e+6 
        920.002      2.87872e+6 
        920.102      2.35472e+6 
        920.165       2.1148e+6 
        920.189      2.06465e+6 
        920.202      2.05132e+6 
        920.215       2.0467e+6 
        920.265      2.11734e+6 
        920.366      2.55193e+6 
        920.466      3.11327e+6 
        920.566      3.68625e+6 
        920.666      4.24391e+6 
        920.766       4.7554e+6 
        920.866      5.22698e+6 
        920.966       5.5915e+6 
        921.066      5.87396e+6 
        921.166      6.06085e+6 
        921.266      6.14062e+6 
        921.367      6.13305e+6 
        921.467      6.03151e+6 
        921.567      5.81235e+6 
        921.667      5.49964e+6 
        921.767      5.11002e+6 
        921.867      4.62116e+6 
        921.967      4.10553e+6 
        922.067      3.53888e+6 
        922.167      2.94328e+6 
        922.267      2.35951e+6 
        922.331      2.04504e+6 
        922.368      1.93379e+6 
        922.405      1.89892e+6 
        922.479      2.04832e+6 
        922.627      2.87176e+6 
         922.67      3.14477e+6 
         922.74      3.56272e+6 
        922.775      3.77714e+6 
         922.81      3.99193e+6 
         922.95      4.79715e+6 
         923.09      5.58022e+6 
         923.23      6.27618e+6 
        923.371      6.87556e+6 
        923.511      7.32946e+6 
        923.651      7.67387e+6 
        923.791      7.87512e+6 
        923.931      7.95769e+6 
        924.071      7.91889e+6 
        924.211      7.74349e+6 
        924.352      7.42484e+6 
        924.492      6.98373e+6 
        924.632      6.41278e+6 
        924.772      5.73447e+6 
        924.912      4.98297e+6 
        925.052      4.16864e+6 
        925.192      3.30882e+6 
        925.333      2.39943e+6 
        925.434      1.90378e+6 
        925.462      1.85213e+6 
        925.473      1.84358e+6 
        925.484      1.84102e+6 
        925.534      1.90581e+6 
        925.634      2.39982e+6 
        925.734      3.06556e+6 
        925.834      3.70221e+6 
        925.934      4.32792e+6 
        926.034       4.9378e+6 
        926.134      5.53822e+6 
        926.232      6.09287e+6 
        926.301      6.47278e+6 
        926.335      6.66589e+6 
        926.369      6.85191e+6 
        926.505      7.53866e+6 
        926.641      8.17417e+6 
        926.777      8.75512e+6 
        926.913      9.24806e+6 
        927.049      9.66046e+6 
        927.185      1.00006e+7 
        927.322      1.02605e+7 
        927.458      1.04527e+7 
        927.594      1.05767e+7 
         927.73      1.06421e+7 
        927.866      1.06449e+7 
        928.002      1.05812e+7 
        928.006      1.05783e+7 
        928.094      1.04872e+7 
        928.138       1.0427e+7 
        928.182      1.03573e+7 
        928.359       9.9864e+6 
        928.535      9.48616e+6 
        928.711       8.8394e+6 
        928.887      8.08759e+6 
        928.985      7.64331e+6 
        929.037      7.39914e+6 
        929.063      7.27235e+6 
        929.089      7.14244e+6 
        929.125      6.95778e+6 
        929.193      6.59128e+6 
        929.261      6.21878e+6 
        929.398      5.45088e+6 
        929.493      4.87387e+6 
        929.525      4.67607e+6 
        929.534      4.62119e+6 
        929.543      4.56615e+6 
        929.593      4.25208e+6 
        929.617      4.09968e+6 
        929.655      3.85175e+6 
        929.693       3.5959e+6 
        929.769      3.09474e+6 
        929.827      2.68713e+6 
        929.883      2.29219e+6 
         929.91      2.12224e+6 
        929.939      1.97802e+6 
        929.954      1.92975e+6 
        929.968      1.89864e+6 
        929.982      1.88238e+6 
        929.996      1.87409e+6 
         930.01        1.872e+6 
        930.024      1.87464e+6 
        930.038      1.88349e+6 
        930.052      1.90033e+6 
        930.081      1.98098e+6 
        930.137      2.29824e+6 
        930.201       2.7542e+6 
        930.247      3.08161e+6 
        930.249      3.09577e+6 
        930.251      3.10988e+6 
        930.301      3.45101e+6 
        930.326      3.60535e+6 
        930.402      4.11932e+6 
        930.478      4.61032e+6 
         930.63      5.56637e+6 
        930.633       5.5845e+6 
        930.782      6.46182e+6 
        930.931      7.31982e+6 
         931.08      8.10217e+6 
        931.229       8.8749e+6 
        931.379      9.63878e+6 
        931.528      1.03438e+7 
        931.677       1.0987e+7 
        931.788      1.14445e+7 
        931.814      1.15489e+7 
        931.826      1.15963e+7 
        931.838      1.16432e+7 
        931.888      1.18335e+7 
        931.988      1.21931e+7 
        932.188      1.27985e+7 
        932.389      1.33145e+7 
        932.589      1.37497e+7 
        932.789      1.40965e+7 
        932.989      1.43529e+7 
        933.189      1.45498e+7 
        933.347      1.46627e+7 
        933.375      1.46786e+7 
        933.377      1.46797e+7 
        933.389      1.46861e+7 
        933.403      1.46933e+7 
        933.432      1.47048e+7 
         933.46      1.47145e+7 
        933.542      1.47347e+7 
        933.652      1.47412e+7 
        933.762      1.47212e+7 
        933.872      1.46751e+7 
        933.982      1.45986e+7 
        934.092      1.44886e+7 
        934.202      1.43466e+7 
        934.312      1.41711e+7 
        934.413      1.39879e+7 
        934.422      1.39714e+7 
        934.533      1.37532e+7 
        934.652      1.34817e+7 
        934.771      1.31751e+7 
         934.89      1.28482e+7 
        935.009      1.24787e+7 
        935.026      1.24224e+7 
        935.128      1.20798e+7 
         935.23      1.17319e+7 
        935.332      1.13599e+7 
        935.434      1.09733e+7 
        935.537      1.05681e+7 
        935.639      1.01416e+7 
        935.741      9.69568e+6 
        935.843       9.2207e+6 
        935.945      8.71453e+6 
         935.95      8.68911e+6 
        936.047      8.19007e+6 
        936.144      7.66769e+6 
        936.338      6.55302e+6 
        936.464      5.79093e+6 
        936.532      5.35488e+6 
        936.601      4.90761e+6 
        936.645      4.61095e+6 
        936.714      4.13943e+6 
        936.737      3.97688e+6 
        936.829      3.32833e+6 
        936.887      2.87999e+6 
        936.944      2.42844e+6 
        936.973      2.22026e+6 
        937.001      2.06947e+6 
        937.015      2.02887e+6 
        937.029      2.00645e+6 
        937.043       1.9977e+6 
        937.058      1.99449e+6 
        937.072      1.99384e+6 
        937.086      1.99507e+6 
        937.101      1.99891e+6 
        937.115      2.00824e+6 
        937.143      2.07252e+6 
         937.15      2.10528e+6 
        937.186      2.33163e+6 
        937.199      2.42732e+6 
         937.25      2.83507e+6 
        937.314      3.33694e+6 
        937.341      3.53558e+6 
        937.442      4.25271e+6 
        937.543      4.95184e+6 
        937.645      5.62863e+6 
        937.746       6.2732e+6 
        937.847      6.89589e+6 
        937.896      7.19327e+6 
        937.948      7.50492e+6 
            938      7.80837e+6 
        938.104      8.39829e+6 
        938.208      8.96742e+6 
        938.312      9.52166e+6 
        938.416       1.0047e+7 
         938.52      1.05499e+7 
        938.543      1.06593e+7 
        938.556      1.07213e+7 
        938.624      1.10413e+7 
        938.729      1.15166e+7 
        938.736      1.15456e+7 
        938.914      1.23442e+7 
        939.093      1.31193e+7 
        939.271      1.38863e+7 
        939.449      1.46148e+7 
        939.628      1.53349e+7 
        939.807      1.60303e+7 
        939.986      1.67256e+7 
        940.164      1.73748e+7 
        940.343      1.79698e+7 
        940.521      1.85196e+7 
         940.58      1.86914e+7 
         940.66       1.8919e+7 
          940.7      1.90296e+7 
         940.74      1.91369e+7 
        940.901      1.95026e+7 
        941.061      1.98436e+7 
        941.221       2.0161e+7 
        941.381      2.04503e+7 
        941.541      2.07044e+7 
        941.701      2.09417e+7 
        942.022      2.13659e+7 
        942.342      2.17175e+7 
        942.662      2.19876e+7 
        942.917       2.2146e+7 
        942.982      2.21781e+7 
        943.048      2.22066e+7 
        943.178      2.22526e+7 
        943.438      2.22637e+7 
        943.698      2.21877e+7 
        943.828      2.21161e+7 
        943.958      2.20207e+7 
        944.088      2.18971e+7 
        944.219      2.17407e+7 
        944.349      2.15564e+7 
        944.479      2.13431e+7 
        944.609      2.11012e+7 
        944.739      2.08303e+7 
        944.999      2.02443e+7 
        945.115      1.99512e+7 
        945.212       1.9694e+7 
         945.26      1.95604e+7 
        945.308      1.94233e+7 
          945.5      1.88817e+7 
        945.692      1.83036e+7 
        945.884      1.76757e+7 
        946.076      1.70377e+7 
        946.147      1.67916e+7 
        946.268      1.63593e+7 
        946.401      1.58943e+7 
        946.653      1.49931e+7 
        946.906       1.4058e+7 
        947.032      1.35657e+7 
        947.158      1.30566e+7 
        947.284       1.2527e+7 
         947.41      1.19721e+7 
        947.538      1.13922e+7 
        947.664      1.07875e+7 
         947.79      1.01483e+7 
        947.916      9.46832e+6 
        947.922      9.43788e+6 
        948.002      8.98474e+6 
        948.043      8.75128e+6 
        948.083        8.514e+6 
        948.244      7.52333e+6 
        948.265      7.39044e+6 
        948.405      6.47624e+6 
        948.546      5.49487e+6 
        948.595      5.13553e+6 
        948.661      4.64478e+6 
        948.686      4.45365e+6 
        948.777      3.74776e+6 
        948.835      3.24737e+6 
        948.893      2.71764e+6 
        948.922       2.4709e+6 
        948.951      2.29524e+6 
        948.966       2.2615e+6 
         948.98      2.25136e+6 
        948.994      2.24963e+6 
        949.009      2.24949e+6 
        949.023      2.24977e+6 
        949.037      2.25012e+6 
        949.052      2.25095e+6 
        949.066      2.25331e+6 
        949.095      2.29857e+6 
        949.153      2.72463e+6 
         949.23      3.43027e+6 
        949.258      3.67679e+6 
        949.269      3.76536e+6 
         949.28      3.85442e+6 
         949.33      4.24891e+6 
         949.36      4.48173e+6 
         949.43      5.01869e+6 
          949.5      5.54281e+6 
         949.64      6.54802e+6 
        949.781      7.48962e+6 
        949.795      7.58123e+6 
        949.879      8.12686e+6 
        949.921      8.39286e+6 
        949.963      8.65405e+6 
        950.131       9.6593e+6 
        950.299      1.06022e+7 
        950.467      1.14801e+7 
        950.635      1.23147e+7 
        950.719      1.27184e+7 
        950.804      1.31109e+7 
        950.888      1.34957e+7 
        951.056      1.42435e+7 
        951.224      1.49677e+7 
        951.392      1.56742e+7 
        951.728      1.70846e+7 
        952.065      1.85524e+7 
        952.401      2.00165e+7 
        952.738      2.14698e+7 
        953.075      2.30007e+7 
        953.413      2.45357e+7 
         953.75      2.60787e+7 
        954.087      2.75574e+7 
        954.425      2.89109e+7 
        954.593      2.95616e+7 
        954.762      3.01944e+7 
         954.93       3.0765e+7 
        955.099       3.1293e+7 
        955.267      3.18089e+7 
        955.437      3.23132e+7 
        955.534      3.25978e+7 
        955.774      3.32861e+7 
        956.014       3.3932e+7 
        956.494      3.52191e+7 
        956.975      3.64211e+7 
        957.455      3.75414e+7 
        957.543      3.77371e+7 
        957.936       3.8569e+7 
         957.98      3.86586e+7 
        958.416       3.9509e+7 
        958.852      4.02774e+7 
        959.289      4.09519e+7 
        959.725      4.15149e+7 
        959.893       4.1705e+7 
        960.162      4.19767e+7 
         960.43      4.22042e+7 
        960.966      4.25642e+7 
        961.234      4.26697e+7 
        961.503      4.27244e+7 
        961.771      4.27238e+7 
        962.039      4.26685e+7 
        962.307      4.25529e+7 
        962.576      4.23782e+7 
        962.844      4.21404e+7 
        963.112      4.18328e+7 
         963.38      4.14656e+7 
        963.648      4.10323e+7 
        963.917      4.05372e+7 
        964.047      4.02762e+7 
        964.139      4.00792e+7 
        964.185      3.99777e+7 
        964.231      3.98747e+7 
        964.415      3.94524e+7 
        964.783      3.85269e+7 
        965.152      3.74905e+7 
         965.52      3.63539e+7 
        965.888      3.51283e+7 
        966.257      3.38293e+7 
        966.625      3.24787e+7 
        966.691      3.22315e+7 
        966.993      3.10554e+7 
        967.361      2.96051e+7 
        967.697      2.82483e+7 
        968.032      2.68745e+7 
        968.108      2.65526e+7 
        968.367      2.54523e+7 
        968.405      2.52898e+7 
        968.703      2.40076e+7 
            969      2.26883e+7 
        969.297      2.13271e+7 
        969.594      1.99021e+7 
        969.786      1.89415e+7 
        969.856      1.85817e+7 
        969.892      1.84002e+7 
        969.927      1.82172e+7 
        970.067      1.74646e+7 
        970.207      1.66781e+7 
        970.347      1.58569e+7 
         970.38      1.56559e+7 
        970.487       1.4993e+7 
        970.504      1.48873e+7 
        970.627      1.40768e+7 
        970.751      1.32084e+7 
        970.874       1.2289e+7 
        970.895      1.21301e+7 
        970.997      1.13121e+7 
        971.008      1.12272e+7 
        971.121      1.02579e+7 
        971.235      9.21649e+6 
        971.348      8.08253e+6 
        971.461      6.85401e+6 
        971.535      6.00292e+6 
        971.563      5.66812e+6 
        971.567      5.62458e+6 
        971.574      5.53784e+6 
        971.585      5.40787e+6 
        971.635      4.80189e+6 
        971.644      4.69068e+6 
        971.703      3.96051e+6 
        971.732      3.59093e+6 
        971.762       3.2185e+6 
        971.778      3.03507e+6 
        971.792      2.90445e+6 
        971.806      2.82689e+6 
        971.821      2.81182e+6 
        971.827      2.81197e+6 
        971.833      2.81213e+6 
        971.836      2.81221e+6 
        971.839      2.81229e+6 
        971.851      2.81261e+6 
        971.866      2.81634e+6 
         971.88      2.86546e+6 
         971.91      3.15149e+6 
        971.969      3.89385e+6 
        972.037      4.74421e+6 
        972.087      5.35805e+6 
        972.137      5.96067e+6 
         972.15      6.11514e+6 
        972.237      7.11872e+6 
        972.324      8.06796e+6 
        972.499      9.78267e+6 
        972.548      1.02223e+7 
        972.673      1.12757e+7 
        972.798      1.22383e+7 
        972.923      1.31249e+7 
        973.048      1.39382e+7 
        973.173      1.46941e+7 
        973.298      1.53998e+7 
        973.423      1.60711e+7 
        973.548      1.67089e+7 
        973.601      1.69709e+7 
        973.673      1.73197e+7 
        973.746      1.76625e+7 
         973.89      1.83293e+7 
        974.034       1.8965e+7 
        974.178      1.95775e+7 
        974.466      2.07845e+7 
        974.754      2.19493e+7 
        975.043      2.30642e+7 
        975.331      2.41871e+7 
        975.556      2.49718e+7 
        975.598       2.5119e+7 
        975.619      2.51928e+7 
         975.64      2.52667e+7 
        975.724      2.55637e+7 
        975.892      2.61652e+7 
        976.228      2.73352e+7 
        976.565      2.85477e+7 
        976.733      2.91876e+7 
        976.901      2.98578e+7 
        977.069      3.05656e+7 
        977.237      3.13197e+7 
        977.405      3.20263e+7 
        977.574      3.27175e+7 
         977.91      3.42145e+7 
        978.246      3.56919e+7 
        978.414      3.64695e+7 
        978.582       3.7297e+7 
         978.75      3.81867e+7 
        978.919      3.91477e+7 
        979.087      4.01945e+7 
        979.105      4.03123e+7 
        979.205      4.09855e+7 
        979.255      4.13368e+7 
        979.305       4.1698e+7 
        979.505      4.29933e+7 
        979.705      4.44227e+7 
        979.905      4.60089e+7 
        980.105      4.73963e+7 
        980.306      4.86746e+7 
