# Koester WD models
# teff = 17000 K (value for the effective temperature for the model. Temperatures are given in K)
# logg = 8.75 log(cm/s2) (value for Log(G) for the model.)
#
# column 1: WAVELENGTH (ANGSTROM), Wavelength in Angstrom
# column 2: FLUX (ERG/CM2/S/A), Flux in erg/cm2/s/A
         899.23      1.37073e+6 
        904.235      1.44242e+6 
         908.45       1.5049e+6 
        909.241      1.51684e+6 
        910.032      1.52883e+6 
        911.193      1.54654e+6 
        911.613      1.55292e+6 
        911.824      1.55609e+6 
        911.929      1.55766e+6 
        912.034      1.55923e+6 
        912.139      1.58322e+6 
        912.244      1.60718e+6 
        912.349      1.63106e+6 
        912.454      1.65479e+6 
        912.559      1.67836e+6 
        912.664      1.70163e+6 
         912.77      1.72432e+6 
        912.875      1.74619e+6 
        912.886      1.74842e+6 
        913.085      1.78375e+6 
        913.284      1.81004e+6 
        913.339      1.81434e+6 
        913.435      1.82126e+6 
        913.483      1.82634e+6 
        913.531       1.8306e+6 
        913.625      1.83297e+6 
        913.724      1.83118e+6 
        913.822      1.83421e+6 
        913.871      1.83618e+6 
        914.018      1.82363e+6 
        914.165      1.79325e+6 
        914.312      1.82591e+6 
        914.343      1.82676e+6 
        914.459      1.76042e+6 
        914.575      1.69172e+6 
        914.692       1.7738e+6 
        914.808      1.83381e+6 
        914.924      1.71873e+6 
        915.009      1.57806e+6 
         915.04      1.54451e+6 
        915.071       1.5339e+6 
        915.133      1.58648e+6 
        915.257      1.81165e+6 
        915.381      1.88921e+6 
        915.505      1.67985e+6 
        915.609      1.42875e+6 
        915.617       1.4154e+6 
         915.63      1.39249e+6 
        915.643      1.37579e+6 
        915.677      1.35767e+6 
        915.745      1.44081e+6 
        915.881      1.83392e+6 
        916.017      2.06479e+6 
        916.153      1.95084e+6 
        916.289      1.54266e+6 
        916.379        1.263e+6 
        916.421      1.21316e+6 
        916.425      1.21228e+6 
        916.429      1.21207e+6 
        916.479      1.26713e+6 
         916.58      1.60307e+6 
         916.68      1.98315e+6 
         916.78      2.26335e+6 
         916.88       2.3885e+6 
         916.98      2.32545e+6 
         917.08       2.0965e+6 
         917.18      1.72649e+6 
        917.182      1.71787e+6 
         917.28      1.29868e+6 
        917.378      1.09107e+6 
        917.575      1.74581e+6 
        917.771      2.51928e+6 
        917.967      2.86004e+6 
        918.163      2.62701e+6 
        918.359      1.90422e+6 
         918.51      1.20458e+6 
        918.556      1.05677e+6 
        918.602      1.00896e+6 
        918.694      1.20757e+6 
        918.878      2.09448e+6 
        919.062      2.88223e+6 
        919.201       3.2971e+6 
        919.241      3.37907e+6 
        919.246      3.38805e+6 
        919.251      3.39678e+6 
        919.301      3.46584e+6 
        919.402      3.51865e+6 
        919.502      3.47322e+6 
        919.602      3.30986e+6 
        919.702      3.04174e+6 
        919.802      2.68467e+6 
        919.902      2.25874e+6 
        920.002       1.7829e+6 
        920.102      1.25368e+6 
        920.165      1.01499e+6 
        920.189          976171 
        920.202          966329 
        920.215          963247 
        920.265      1.01616e+6 
        920.366       1.4643e+6 
        920.466      1.97591e+6 
        920.566      2.45499e+6 
        920.666       2.9156e+6 
        920.766      3.31831e+6 
        920.866       3.6789e+6 
        920.966       3.9601e+6 
        921.066      4.17147e+6 
        921.166      4.31256e+6 
        921.266      4.37847e+6 
        921.367      4.37903e+6 
        921.467       4.3075e+6 
        921.567      4.15642e+6 
        921.667      3.93472e+6 
        921.767      3.64233e+6 
        921.867      3.28293e+6 
        921.967      2.88408e+6 
        922.067      2.42694e+6 
        922.167      1.92667e+6 
        922.267      1.38868e+6 
        922.331      1.06184e+6 
        922.368          970890 
        922.405          949487 
        922.479      1.06363e+6 
        922.627      1.86208e+6 
         922.67      2.08626e+6 
         922.74      2.44071e+6 
        922.775      2.60894e+6 
         922.81      2.78046e+6 
         922.95      3.39949e+6 
         923.09      3.97286e+6 
         923.23      4.46474e+6 
        923.371      4.88197e+6 
        923.511      5.19645e+6 
        923.651       5.4183e+6 
        923.791      5.54868e+6 
        923.931      5.60686e+6 
        924.071      5.59068e+6 
        924.211      5.48685e+6 
        924.352      5.29135e+6 
        924.492      4.99249e+6 
        924.632      4.59323e+6 
        924.772      4.12457e+6 
        924.912      3.57498e+6 
        925.052      2.97312e+6 
        925.192      2.28176e+6 
        925.333       1.4824e+6 
        925.434          994283 
        925.462          968154 
        925.473          965072 
        925.484          964233 
        925.534          995410 
        925.634      1.48129e+6 
        925.734      2.06844e+6 
        925.834      2.60256e+6 
        925.934      3.09333e+6 
        926.034      3.54186e+6 
        926.134      3.97773e+6 
        926.232      4.37253e+6 
        926.234      4.38023e+6 
        926.301      4.63275e+6 
        926.335      4.76262e+6 
        926.369      4.88819e+6 
        926.505      5.36848e+6 
        926.641       5.7838e+6 
        926.777      6.13902e+6 
        926.913      6.43904e+6 
        927.049      6.67969e+6 
        927.185      6.87713e+6 
        927.322      7.03249e+6 
        927.458      7.15177e+6 
        927.594      7.22858e+6 
         927.73      7.27379e+6 
        927.866      7.28375e+6 
        928.002      7.25764e+6 
        928.006      7.25629e+6 
        928.094      7.20597e+6 
        928.138      7.17106e+6 
        928.182      7.13044e+6 
        928.359      6.90767e+6 
        928.535      6.58566e+6 
        928.711      6.17458e+6 
        928.887      5.71569e+6 
        928.985       5.4348e+6 
        929.037      5.27379e+6 
        929.063      5.18985e+6 
        929.089      5.10361e+6 
        929.125      4.98008e+6 
        929.193      4.73504e+6 
        929.261      4.48079e+6 
        929.398      3.93324e+6 
        929.493      3.51723e+6 
        929.525      3.37275e+6 
        929.534      3.33207e+6 
        929.543      3.29022e+6 
        929.593      3.05201e+6 
        929.617      2.93363e+6 
        929.655      2.73966e+6 
        929.693      2.53823e+6 
        929.769       2.1091e+6 
        929.827      1.75223e+6 
        929.883      1.39257e+6 
         929.91      1.22042e+6 
        929.939      1.07454e+6 
        929.954      1.03554e+6 
        929.968      1.01672e+6 
        929.982      1.01024e+6 
        929.996       1.0083e+6 
         930.01      1.00804e+6 
        930.024      1.00862e+6 
        930.038      1.01087e+6 
        930.052      1.01768e+6 
        930.081      1.07625e+6 
        930.137      1.39643e+6 
        930.201      1.80963e+6 
        930.247      2.09529e+6 
        930.249      2.10753e+6 
        930.251      2.11978e+6 
        930.301      2.41224e+6 
        930.326      2.54409e+6 
        930.402      2.94758e+6 
        930.478       3.3228e+6 
         930.63      4.01791e+6 
        930.633       4.0311e+6 
        930.782       4.6526e+6 
        930.931      5.23044e+6 
         931.08      5.74792e+6 
        931.229      6.22189e+6 
        931.379      6.70384e+6 
        931.516      7.12403e+6 
        931.528         7.16e+6 
        931.677      7.57611e+6 
        931.838      7.98499e+6 
        931.999      8.34778e+6 
         932.16      8.63253e+6 
        932.321        8.887e+6 
        932.483      9.10958e+6 
        932.644      9.30581e+6 
        932.805      9.46574e+6 
        932.966      9.59166e+6 
        933.127      9.69398e+6 
        933.173      9.71889e+6 
        933.265      9.76288e+6 
        933.288      9.77262e+6 
        933.403      9.81342e+6 
        933.432       9.8209e+6 
        933.542      9.84186e+6 
        933.652      9.84933e+6 
        933.762      9.84255e+6 
        933.872      9.82093e+6 
        933.982      9.77827e+6 
        934.092      9.71142e+6 
        934.202      9.62452e+6 
        934.312      9.51692e+6 
        934.413      9.40392e+6 
        934.422      9.39371e+6 
        934.533       9.2578e+6 
        934.652      9.08605e+6 
        934.771      8.88939e+6 
         934.89       8.6697e+6 
        935.009       8.4234e+6 
        935.026      8.38601e+6 
        935.128      8.16761e+6 
         935.23      7.96221e+6 
        935.332      7.74434e+6 
        935.434      7.51494e+6 
        935.537      7.27153e+6 
        935.639      7.01323e+6 
        935.741      6.74214e+6 
        935.843      6.45035e+6 
        935.945      6.13471e+6 
         935.95      6.11869e+6 
        936.047      5.79778e+6 
        936.144      5.45264e+6 
        936.338      4.71088e+6 
        936.464      4.17945e+6 
        936.532      3.86865e+6 
        936.601      3.54246e+6 
        936.645      3.32004e+6 
        936.714      2.95646e+6 
        936.737      2.82912e+6 
        936.829      2.29079e+6 
        936.887      1.90422e+6 
        936.944      1.50134e+6 
        936.973      1.29138e+6 
        937.001      1.13587e+6 
        937.015      1.10382e+6 
        937.029      1.09164e+6 
        937.043      1.08936e+6 
        937.058      1.08908e+6 
        937.072      1.08919e+6 
        937.086      1.08942e+6 
        937.101      1.09006e+6 
        937.115      1.09268e+6 
        937.143      1.13765e+6 
         937.15      1.16638e+6 
        937.186      1.40196e+6 
        937.199      1.49833e+6 
         937.25      1.86427e+6 
        937.314      2.29577e+6 
        937.341      2.46635e+6 
        937.442      3.04426e+6 
        937.543      3.57532e+6 
        937.645      4.06575e+6 
        937.746       4.5232e+6 
        937.847      4.94729e+6 
        937.896      5.14715e+6 
        937.948      5.35324e+6 
            938      5.55324e+6 
        938.104      5.94339e+6 
        938.208      6.30854e+6 
        938.312      6.65471e+6 
        938.416      6.97886e+6 
         938.52      7.28567e+6 
        938.543      7.35239e+6 
        938.624      7.58475e+6 
        938.729      7.87217e+6 
        938.914      8.36531e+6 
        938.927      8.39936e+6 
        939.099      8.86243e+6 
        939.271       9.3599e+6 
        939.443      9.82998e+6 
        939.523      1.00417e+7 
        939.615      1.02776e+7 
        939.788      1.07051e+7 
        939.828      1.08092e+7 
         939.98      1.11943e+7 
        940.132      1.15634e+7 
        940.284      1.19032e+7 
        940.436      1.22158e+7 
        940.588      1.25156e+7 
         940.74      1.28006e+7 
        940.893      1.30572e+7 
        941.045      1.32989e+7 
        941.197      1.35259e+7 
        941.349      1.37378e+7 
        941.501      1.39123e+7 
        941.653      1.40757e+7 
        941.958      1.43697e+7 
        942.262      1.46195e+7 
        942.566      1.48051e+7 
        942.693       1.4866e+7 
         942.87      1.49331e+7 
        943.048       1.4979e+7 
        943.225      1.50052e+7 
        943.402      1.49966e+7 
        943.579      1.49591e+7 
        943.756      1.48912e+7 
        943.933      1.47923e+7 
        944.111      1.46564e+7 
        944.288       1.4478e+7 
        944.465      1.42628e+7 
        944.642       1.4011e+7 
        944.819      1.37374e+7 
        944.996      1.34532e+7 
        945.039      1.33797e+7 
        945.173      1.31407e+7 
        945.308      1.28853e+7 
        945.576      1.23473e+7 
        945.844      1.17494e+7 
        946.112      1.11734e+7 
        946.139      1.11147e+7 
        946.395      1.05608e+7 
        946.649      1.00123e+7 
        946.904      9.43917e+6 
        947.108       8.9564e+6 
        947.158      8.83557e+6 
        947.208      8.71321e+6 
        947.308      8.46185e+6 
        947.509      7.93032e+6 
        947.709      7.35038e+6 
        947.735      7.27031e+6 
        947.909      6.69621e+6 
        948.083      6.05272e+6 
        948.257      5.34168e+6 
        948.317      5.08068e+6 
        948.431      4.54758e+6 
        948.546      3.96648e+6 
         948.66      3.32585e+6 
        948.727       2.9191e+6 
        948.761      2.70047e+6 
        948.771      2.63249e+6 
        948.774      2.61207e+6 
        948.777      2.59148e+6 
        948.827      2.22477e+6 
        948.835      2.16449e+6 
        948.893      1.70058e+6 
        948.922      1.45239e+6 
        948.951      1.26928e+6 
        948.966      1.24433e+6 
         948.98      1.24001e+6 
        948.994      1.23993e+6 
        949.009      1.24012e+6 
        949.023       1.2403e+6 
        949.037      1.24049e+6 
        949.052      1.24071e+6 
        949.066      1.24116e+6 
        949.095      1.27123e+6 
        949.153      1.70517e+6 
         949.23      2.31654e+6 
        949.258      2.52676e+6 
        949.269      2.60412e+6 
         949.28         2.68e+6 
         949.33       3.0052e+6 
         949.36      3.19079e+6 
         949.43      3.60812e+6 
          949.5      4.00236e+6 
         949.64      4.72807e+6 
        949.781      5.38149e+6 
        949.795      5.44334e+6 
        949.879      5.80909e+6 
        949.921      5.98433e+6 
        949.963      6.15617e+6 
        950.131      6.80871e+6 
        950.299       7.3988e+6 
        950.467      7.93447e+6 
        950.635      8.43288e+6 
        950.719       8.6723e+6 
        950.804       8.9061e+6 
        950.888      9.13402e+6 
        951.056      9.58073e+6 
        951.392      1.04498e+7 
         951.56      1.08768e+7 
        951.728      1.13004e+7 
        951.896      1.17539e+7 
        952.065      1.22085e+7 
        952.233      1.26863e+7 
        952.401      1.31924e+7 
        952.688      1.40437e+7 
        952.737      1.41926e+7 
        952.788      1.43478e+7 
        952.888      1.46518e+7 
        953.089      1.52614e+7 
        953.489      1.65417e+7 
        953.889      1.78881e+7 
         954.29      1.91983e+7 
         954.49      1.98426e+7 
         954.69      2.04794e+7 
         954.89      2.10871e+7 
        954.967      2.12999e+7 
         955.09      2.16358e+7 
        955.229      2.20074e+7 
        955.491      2.26901e+7 
        955.752      2.33494e+7 
        956.014      2.39437e+7 
        956.537      2.51946e+7 
        957.061      2.63683e+7 
        957.584      2.74466e+7 
        957.974      2.81825e+7 
        958.108      2.84219e+7 
        958.302      2.87578e+7 
        958.631      2.92902e+7 
         958.96      2.97711e+7 
        959.289       3.0195e+7 
        959.463      3.03802e+7 
        959.618      3.05314e+7 
        959.946      3.08122e+7 
         960.43      3.11149e+7 
        960.671       3.1246e+7 
        960.913      3.13373e+7 
        961.154      3.13865e+7 
        961.397      3.13945e+7 
        961.638      3.13568e+7 
         961.88      3.12749e+7 
        962.121      3.11493e+7 
        962.363      3.09748e+7 
        962.605      3.07568e+7 
        962.847      3.04905e+7 
        963.088      3.01737e+7 
         963.33      2.98148e+7 
        963.396      2.97097e+7 
        963.571       2.9412e+7 
        963.814      2.89705e+7 
        964.231      2.81164e+7 
        964.648      2.71647e+7 
        965.066      2.61171e+7 
        965.483      2.50007e+7 
          965.9       2.3822e+7 
        966.273      2.27476e+7 
        966.318      2.26164e+7 
        967.152      2.01807e+7 
        968.032       1.7663e+7 
        968.526      1.62606e+7 
        968.668      1.58635e+7 
        968.912      1.51716e+7 
        968.983      1.49714e+7 
        969.297      1.40688e+7 
        969.611      1.31371e+7 
        969.876      1.23234e+7 
        969.927      1.21651e+7 
        969.977      1.20052e+7 
        970.077      1.16796e+7 
        970.277      1.10034e+7 
        970.477      1.02834e+7 
         970.48      1.02721e+7 
        970.677      9.49389e+6 
        970.874      8.61491e+6 
        971.071      7.60708e+6 
         971.19       6.9154e+6 
        971.269      6.40285e+6 
        971.348      5.84858e+6 
        971.427      5.24266e+6 
        971.467      4.91596e+6 
        971.506      4.58088e+6 
        971.585      3.85678e+6 
        971.644       3.2699e+6 
        971.703      2.64486e+6 
        971.732      2.32761e+6 
        971.762       1.9959e+6 
        971.778       1.8286e+6 
        971.792      1.69834e+6 
        971.806      1.60377e+6 
        971.821      1.57223e+6 
        971.827      1.57209e+6 
        971.833      1.57218e+6 
        971.836      1.57223e+6 
        971.839      1.57228e+6 
        971.851      1.57247e+6 
        971.866      1.58299e+6 
         971.88       1.6529e+6 
         971.91      1.93388e+6 
        971.969      2.58652e+6 
        972.037      3.31224e+6 
        972.087      3.81562e+6 
        972.137       4.2905e+6 
         972.15      4.40901e+6 
        972.237      5.16035e+6 
        972.324      5.84104e+6 
        972.499      7.01895e+6 
        972.548      7.31124e+6 
        972.673      7.99636e+6 
        972.798       8.6057e+6 
        972.923      9.15457e+6 
        973.048      9.65283e+6 
        973.173       1.0109e+7 
        973.298      1.05328e+7 
        973.423      1.09349e+7 
        973.548      1.13164e+7 
        973.601      1.14734e+7 
        973.673       1.1683e+7 
        973.746      1.18889e+7 
         973.89      1.22917e+7 
        974.178      1.30529e+7 
        974.466      1.37933e+7 
        974.754      1.45146e+7 
        975.043      1.52102e+7 
        975.556      1.64166e+7 
        975.598      1.65109e+7 
        975.619      1.65582e+7 
         975.64      1.66055e+7 
        975.724      1.67959e+7 
        975.892      1.71835e+7 
        976.228      1.79442e+7 
        976.565      1.87419e+7 
        976.733       1.9167e+7 
        976.901      1.96162e+7 
        977.069      2.00936e+7 
        977.237      2.06071e+7 
        977.405      2.10914e+7 
        977.574      2.15664e+7 
         977.91      2.26099e+7 
        978.246      2.36516e+7 
        978.414      2.42059e+7 
        978.582      2.47991e+7 
         978.75      2.54443e+7 
        978.919      2.61479e+7 
        979.087      2.69196e+7 
        979.105      2.70069e+7 
        979.205      2.75091e+7 
        979.255      2.77718e+7 
        979.305      2.80432e+7 
        979.505      2.90149e+7 
        979.705      3.00999e+7 
        979.905      3.13239e+7 
        980.105      3.24077e+7 
        980.306       3.3413e+7 
        980.506      3.44922e+7 
        980.706      3.55801e+7 
        980.906      3.64817e+7 
        981.106      3.74192e+7 
        981.506      3.93249e+7 
        982.307       4.3146e+7 
        982.707      4.50464e+7 
        983.108      4.69963e+7 
        983.508      4.90597e+7 
        983.863      5.10298e+7 
        983.893      5.12017e+7 
        983.908      5.12881e+7 
        983.923      5.13745e+7 
        983.983      5.17213e+7 
        984.103       5.2382e+7 
        984.344      5.36562e+7 
        984.824      5.62471e+7 
        984.951      5.68898e+7 
        985.785       6.1268e+7 
        986.202      6.35346e+7 
         986.41      6.46417e+7 
        986.618      6.57608e+7 
