# Koester WD models
# teff = 17500 K (value for the effective temperature for the model. Temperatures are given in K)
# logg = 8.25 log(cm/s2) (value for Log(G) for the model.)
#
# column 1: WAVELENGTH (ANGSTROM), Wavelength in Angstrom
# column 2: FLUX (ERG/CM2/S/A), Flux in erg/cm2/s/A
         899.23      2.00087e+6 
        904.235      2.10094e+6 
         908.45      2.18797e+6 
        909.241      2.20457e+6 
        910.032      2.22125e+6 
        911.193      2.24602e+6 
        911.613      2.25494e+6 
        911.824      2.25936e+6 
        911.929      2.26156e+6 
        912.034      2.26373e+6 
        912.139       2.3109e+6 
        912.244      2.35796e+6 
        912.349       2.4049e+6 
        912.454       2.4516e+6 
        912.559      2.49803e+6 
        912.664      2.54456e+6 
         912.77      2.59013e+6 
        912.875      2.63372e+6 
        912.886       2.6381e+6 
         912.98      2.67294e+6 
        913.085      2.70028e+6 
        913.284      2.71418e+6 
        913.433      2.71224e+6 
        913.483      2.70727e+6 
        913.533      2.71039e+6 
        913.633      2.72747e+6 
        913.645      2.72577e+6 
        913.734      2.69075e+6 
        913.822      2.65816e+6 
        913.831      2.66002e+6 
        913.998      2.71943e+6 
        914.165      2.51374e+6 
        914.332      2.75084e+6 
        914.423      2.66437e+6 
        914.499      2.42088e+6 
        914.575       2.2868e+6 
        914.728      2.71566e+6 
         914.88      2.72557e+6 
        914.982      2.28076e+6 
        915.032      2.07449e+6 
        915.082      2.02325e+6 
        915.182      2.41448e+6 
        915.282      2.88061e+6 
        915.382      2.99199e+6 
        915.482      2.70621e+6 
        915.522      2.49033e+6 
        915.583      2.12325e+6 
        915.593      2.05719e+6 
        915.643      1.81887e+6 
        915.693      1.78056e+6 
        915.793      2.28357e+6 
        915.893      2.92399e+6 
        915.993      3.28334e+6 
        916.093      3.29305e+6 
        916.193      2.94497e+6 
        916.293      2.29579e+6 
        916.343      1.92257e+6 
        916.393      1.64022e+6 
        916.443      1.58394e+6 
        916.544      2.14168e+6 
        916.644      2.91956e+6 
        916.744      3.49989e+6 
        916.844      3.81405e+6 
        916.944      3.83475e+6 
        917.044      3.54969e+6 
        917.144      2.98517e+6 
        917.244      2.20739e+6 
        917.294      1.78522e+6 
        917.344      1.48821e+6 
        917.394      1.44139e+6 
        917.495      2.05766e+6 
        917.595      2.91812e+6 
        917.695      3.63429e+6 
        917.795      4.17879e+6 
        917.895       4.5113e+6 
        917.995      4.61387e+6 
        918.095      4.48516e+6 
        918.195      4.10371e+6 
        918.295      3.54183e+6 
        918.395      2.80623e+6 
        918.496      1.88815e+6 
        918.546      1.49496e+6 
        918.596      1.33202e+6 
        918.646       1.4294e+6 
        918.746      2.26173e+6 
        918.846      3.13544e+6 
        918.946      3.88433e+6 
        919.046      4.54865e+6 
        919.146      5.06937e+6 
        919.196      5.26298e+6 
        919.246      5.41771e+6 
        919.296      5.52631e+6 
        919.397      5.61487e+6 
        919.497       5.5582e+6 
        919.597      5.32921e+6 
        919.697      4.93833e+6 
        919.797      4.39129e+6 
        919.897       3.7236e+6 
        919.997      2.93678e+6 
        920.097      1.97456e+6 
        920.147      1.51207e+6 
        920.197      1.28946e+6 
        920.247      1.31948e+6 
        920.347      2.12855e+6 
        920.448      3.06769e+6 
        920.548      3.87321e+6 
        920.648      4.59213e+6 
        920.748      5.22412e+6 
        920.848      5.76209e+6 
        920.948      6.19158e+6 
        921.048      6.50495e+6 
        921.148      6.72097e+6 
        921.248      6.82879e+6 
        921.349      6.84836e+6 
        921.449      6.76878e+6 
        921.549      6.58368e+6 
        921.649      6.29126e+6 
        921.749      5.88882e+6 
        921.849      5.38469e+6 
        921.949      4.80092e+6 
        922.049       4.1011e+6 
        922.149      3.30961e+6 
        922.249      2.38663e+6 
        922.294      1.88515e+6 
         922.35      1.38762e+6 
        922.405      1.26082e+6 
        922.515      1.88962e+6 
        922.625      3.02519e+6 
         922.66      3.32937e+6 
        922.735      3.95011e+6 
         922.81      4.52006e+6 
         922.96      5.52063e+6 
         923.11      6.39308e+6 
         923.26       7.1153e+6 
        923.411      7.69508e+6 
        923.561      8.11872e+6 
        923.711      8.39732e+6 
        923.861      8.54824e+6 
        924.011       8.5812e+6 
        924.161      8.47954e+6 
        924.312      8.23154e+6 
        924.462      7.81917e+6 
        924.612      7.24568e+6 
        924.762       6.5599e+6 
        924.912       5.7243e+6 
        925.062      4.75691e+6 
        925.212      3.56495e+6 
        925.241      3.29368e+6 
        925.363      2.04288e+6 
        925.484      1.27826e+6 
        925.605      2.04811e+6 
        925.726      3.31014e+6 
        925.847      4.35403e+6 
        925.968      5.24517e+6 
        926.089      6.02545e+6 
         926.21      6.74173e+6 
        926.282      7.12026e+6 
        926.332      7.38607e+6 
        926.382      7.63966e+6 
        926.482      8.13908e+6 
        926.682      8.99846e+6 
        926.882      9.67881e+6 
        927.082       1.0182e+7 
        927.283       1.0553e+7 
        927.483      1.08108e+7 
        927.683      1.09476e+7 
        927.883      1.09786e+7 
        927.984      1.09517e+7 
        928.083      1.08793e+7 
        928.182      1.07557e+7 
        928.381      1.03755e+7 
        928.579       9.8117e+6 
        928.777      9.12146e+6 
        928.861      8.82209e+6 
        928.975      8.37454e+6 
        929.089      7.87792e+6 
        929.145      7.61016e+6 
        929.203      7.31774e+6 
        929.261      7.01804e+6 
        929.378      6.36358e+6 
        929.444       5.9575e+6 
        929.494      5.63709e+6 
        929.544      5.30009e+6 
        929.644      4.55267e+6 
        929.694      4.13603e+6 
        929.705      4.04106e+6 
        929.744      3.69304e+6 
        929.794      3.19491e+6 
        929.827      2.84478e+6 
        929.883      2.19757e+6 
        929.889        2.122e+6 
        929.939       1.5177e+6 
        929.989      1.33474e+6 
        930.039      1.33985e+6 
        930.089      1.59279e+6 
        930.139      2.22688e+6 
        930.189      2.81078e+6 
        930.239      3.34181e+6 
        930.289      3.83312e+6 
        930.301      3.94169e+6 
         930.39      4.69062e+6 
        930.478      5.35629e+6 
        930.654      6.51576e+6 
        930.729      6.96409e+6 
         930.83       7.5249e+6 
        930.931      8.05875e+6 
        931.032      8.55195e+6 
        931.133      9.01643e+6 
        931.234      9.45682e+6 
        931.335      9.91958e+6 
        931.437      1.03761e+7 
         931.44      1.03894e+7 
        931.639      1.12578e+7 
        931.838      1.20244e+7 
        932.037      1.26738e+7 
        932.236      1.31752e+7 
        932.436      1.36077e+7 
        932.635       1.3979e+7 
        932.834      1.42753e+7 
        933.033      1.45036e+7 
        933.061      1.45312e+7 
        933.232      1.46766e+7 
        933.265      1.46999e+7 
        933.403      1.47793e+7 
        933.432      1.47911e+7 
        933.542      1.48245e+7 
        933.652      1.48374e+7 
        933.762      1.48291e+7 
        933.872      1.47982e+7 
        933.982      1.47327e+7 
        934.092      1.46264e+7 
        934.202      1.44888e+7 
        934.312      1.43192e+7 
        934.413      1.41412e+7 
        934.422      1.41249e+7 
        934.533      1.39075e+7 
        934.652      1.36349e+7 
        934.771       1.3326e+7 
         934.89      1.29852e+7 
        935.009      1.26077e+7 
        935.026      1.25508e+7 
        935.128      1.22237e+7 
         935.23      1.19239e+7 
        935.332      1.16054e+7 
        935.434      1.12706e+7 
        935.537      1.09173e+7 
        935.639      1.05444e+7 
        935.741      1.01592e+7 
        935.746      1.01397e+7 
        935.843      9.74833e+6 
        935.945      9.30625e+6 
        936.144      8.36339e+6 
        936.343      7.32151e+6 
        936.484      6.47916e+6 
        936.542      6.09397e+6 
        936.601      5.68415e+6 
        936.605      5.65484e+6 
        936.717      4.76875e+6 
        936.829      3.72609e+6 
        936.891       3.0363e+6 
        936.941      2.40255e+6 
        936.991      1.68097e+6 
        937.041      1.43657e+6 
        937.091      1.43554e+6 
        937.141      1.56606e+6 
        937.168       1.8939e+6 
        937.191      2.24236e+6 
        937.241      2.90222e+6 
        937.314      3.73306e+6 
        937.377      4.35265e+6 
         937.46       5.0798e+6 
        937.543      5.73407e+6 
         937.71      6.87066e+6 
        937.752      7.12912e+6 
        937.876      7.84167e+6 
            938      8.50753e+6 
        938.124      9.14301e+6 
        938.248      9.74004e+6 
        938.372      1.03007e+7 
        938.496      1.08266e+7 
         938.62      1.13399e+7 
        938.745      1.18354e+7 
        938.819      1.21243e+7 
        938.869      1.23177e+7 
        938.919      1.25085e+7 
        939.019      1.28871e+7 
        939.167      1.35287e+7 
        939.219      1.37595e+7 
        939.271       1.3987e+7 
        939.375      1.44355e+7 
        939.583       1.5309e+7 
        939.792      1.61427e+7 
            940      1.69928e+7 
        940.104      1.74034e+7 
        940.208       1.7806e+7 
        940.312      1.81649e+7 
        940.416      1.85149e+7 
        940.508        1.882e+7 
        940.624       1.9197e+7 
         940.74      1.95618e+7 
        940.973      2.02278e+7 
        941.205      2.08422e+7 
        941.437      2.13765e+7 
        941.669      2.18234e+7 
        941.901      2.22251e+7 
        942.134      2.25818e+7 
        942.149      2.26034e+7 
        942.366      2.28799e+7 
        942.374      2.28883e+7 
        942.598      2.31082e+7 
        942.823      2.32678e+7 
        943.048       2.3362e+7 
        943.272      2.33903e+7 
        943.497       2.3325e+7 
        943.721      2.31717e+7 
        943.834       2.3061e+7 
        943.946      2.29279e+7 
        944.058      2.27688e+7 
        944.171      2.25694e+7 
        944.284      2.23439e+7 
        944.396      2.20928e+7 
         944.62       2.1518e+7 
        944.832       2.0922e+7 
        944.845      2.08857e+7 
        945.069      2.02227e+7 
        945.308      1.94518e+7 
        945.546      1.86331e+7 
        945.783      1.77547e+7 
        946.021      1.69151e+7 
        946.258       1.6118e+7 
        946.497      1.53444e+7 
        946.785      1.43942e+7 
        946.972      1.37649e+7 
        947.158      1.31202e+7 
        947.344      1.24487e+7 
        947.532      1.17384e+7 
        947.718      1.09758e+7 
        947.727      1.09394e+7 
        947.905      1.01283e+7 
        948.083       9.2299e+6 
        948.261       8.2409e+6 
        948.333      7.80302e+6 
        948.439      7.10408e+6 
        948.546      6.31956e+6 
        948.652      5.42698e+6 
        948.708      4.90195e+6 
        948.723      4.75675e+6 
        948.758      4.39974e+6 
        948.808      3.82027e+6 
        948.835      3.48154e+6 
        948.893      2.66069e+6 
        948.901      2.53543e+6 
        948.951        1.729e+6 
        949.001      1.62752e+6 
        949.049      1.62837e+6 
        949.051      1.62842e+6 
        949.101      1.78426e+6 
        949.153      2.66754e+6 
        949.207      3.44196e+6 
        949.257      4.06541e+6 
        949.307      4.61921e+6 
        949.314      4.69059e+6 
        949.407      5.58129e+6 
          949.5      6.37379e+6 
        949.687      7.72819e+6 
        949.783      8.33857e+6 
        949.873      8.87205e+6 
        949.963      9.37988e+6 
        950.143      1.03325e+7 
        950.323      1.11994e+7 
        950.503      1.19898e+7 
        950.683      1.27341e+7 
        950.814      1.32511e+7 
        950.864      1.34463e+7 
        950.914      1.36393e+7 
        951.014      1.40214e+7 
        951.214      1.47825e+7 
        951.414      1.55368e+7 
        951.614      1.62929e+7 
        951.814      1.70741e+7 
        952.015      1.78978e+7 
        952.092      1.82206e+7 
        952.215      1.87764e+7 
        952.415      1.97701e+7 
        952.738      2.13984e+7 
        952.899      2.22443e+7 
        953.061      2.31075e+7 
        953.223      2.39856e+7 
        953.385      2.49352e+7 
        953.546      2.59458e+7 
        953.708      2.69789e+7 
        954.031      2.90867e+7 
        954.355      3.11782e+7 
        954.678      3.33106e+7 
        955.001      3.53457e+7 
        955.324      3.72502e+7 
        955.648      3.91034e+7 
        955.921      4.05504e+7 
        955.971      4.07967e+7 
        956.021      4.10427e+7 
        956.121        4.154e+7 
        956.321      4.25243e+7 
        956.722      4.44375e+7 
        957.122      4.62691e+7 
        957.522      4.80082e+7 
        957.923      4.96353e+7 
        958.323      5.11366e+7 
        958.723      5.25095e+7 
        958.959      5.32406e+7 
        959.124      5.37175e+7 
        959.289      5.41636e+7 
        959.619      5.50115e+7 
        959.949      5.57187e+7 
         960.13      5.60416e+7 
         960.28      5.62719e+7 
         960.43       5.6466e+7 
         960.73      5.69684e+7 
         961.03      5.72854e+7 
        961.331      5.74139e+7 
        961.631      5.73444e+7 
        961.931      5.70761e+7 
        962.231       5.6609e+7 
        962.532      5.59439e+7 
        962.832      5.50897e+7 
        963.132      5.40363e+7 
        963.432      5.28259e+7 
        963.733       5.1459e+7 
        963.835      5.09673e+7 
        964.033      4.99721e+7 
        964.231      4.89064e+7 
        964.627      4.66621e+7 
        965.024      4.42889e+7 
         965.42      4.18463e+7 
        965.816      3.93535e+7 
        966.213      3.68971e+7 
        966.609       3.4511e+7 
        967.005      3.21844e+7 
        967.402      2.99774e+7 
        967.564      2.90996e+7 
        967.798      2.78723e+7 
        968.032      2.66833e+7 
        968.266      2.55132e+7 
          968.5      2.43849e+7 
        968.735      2.32849e+7 
        969.109      2.15663e+7 
        969.203      2.11393e+7 
        969.297      2.07142e+7 
        969.485       1.9859e+7 
        969.796      1.84373e+7 
        969.861      1.81372e+7 
        969.927      1.78354e+7 
        970.057      1.72226e+7 
        970.187      1.65961e+7 
        970.317      1.59536e+7 
        970.447       1.5287e+7 
        970.577      1.45896e+7 
        970.707      1.38458e+7 
        970.787      1.33631e+7 
        970.837      1.30501e+7 
        970.887      1.27284e+7 
        970.987      1.20538e+7 
        971.087       1.1325e+7 
        971.188      1.05279e+7 
        971.228      1.01877e+7 
        971.288      9.64236e+6 
        971.348      9.05574e+6 
        971.351      9.02042e+6 
        971.468      7.71908e+6 
        971.585      6.14458e+6 
        971.652      5.09105e+6 
        971.702      4.21834e+6 
        971.752      3.26895e+6 
        971.802       2.2931e+6 
        971.852      2.05118e+6 
        971.902      2.78539e+6 
        971.917      3.08237e+6 
        971.952      3.76953e+6 
        972.002      4.68792e+6 
        972.087      6.07917e+6 
        972.191      7.52625e+6 
        972.257      8.32607e+6 
        972.324      9.05014e+6 
        972.458      1.03112e+7 
        972.591       1.1385e+7 
         972.65      1.18196e+7 
        972.724      1.23287e+7 
        972.798      1.28074e+7 
        972.946      1.36874e+7 
        973.093      1.44805e+7 
        973.241      1.52086e+7 
        973.388      1.58909e+7 
        973.536      1.65378e+7 
        973.622      1.69021e+7 
        973.685      1.71576e+7 
        973.746      1.74106e+7 
        973.869      1.79092e+7 
        974.115      1.88687e+7 
        974.607      2.07733e+7 
        975.099        2.262e+7 
        975.541      2.42742e+7 
        975.591      2.44559e+7 
        975.641      2.46394e+7 
        975.741      2.50106e+7 
        975.941      2.57768e+7 
        976.141       2.6525e+7 
        976.342      2.73043e+7 
        976.542      2.81263e+7 
        976.742      2.90047e+7 
        976.942      2.99545e+7 
        977.142      3.09939e+7 
        977.342      3.20914e+7 
        977.542      3.31099e+7 
        977.743      3.42148e+7 
        977.943      3.54243e+7 
        978.143       3.6576e+7 
        978.343      3.78022e+7 
        978.543      3.91414e+7 
        978.743      4.06359e+7 
        978.944      4.23207e+7 
        978.983      4.26745e+7 
        979.144       4.4233e+7 
        979.305      4.59813e+7 
        979.466      4.76049e+7 
        979.627      4.94012e+7 
        979.788      5.14056e+7 
        979.949      5.36612e+7 
         980.11      5.54761e+7 
        980.271      5.72819e+7 
        980.432      5.92215e+7 
        980.593      6.13163e+7 
        980.754      6.31925e+7 
        980.915      6.49088e+7 
        981.237      6.85618e+7 
         981.56      7.22742e+7 
        981.882      7.61594e+7 
        982.203       8.0027e+7 
        982.525      8.39141e+7 
        982.848      8.79762e+7 
         983.17      9.22067e+7 
        983.492      9.67472e+7 
        983.704       9.9974e+7 
        983.813      1.01693e+8 
        983.923      1.03459e+8 
        984.142      1.07009e+8 
        984.297      1.09425e+8 
        984.581      1.14067e+8 
        984.877      1.18847e+8 
        985.167      1.23434e+8 
        985.457      1.28177e+8 
        985.748      1.33184e+8 
        986.038      1.38317e+8 
        986.328      1.43344e+8 
        986.568      1.47563e+8 
        986.618      1.48453e+8 
        986.668      1.49324e+8 
        986.768      1.51016e+8 
        986.969      1.52964e+8 
        987.169      1.54855e+8 
        987.569       1.5843e+8 
        987.969       1.6159e+8 
        988.169      1.63358e+8 
         988.37      1.66309e+8 
         988.57      1.69241e+8 
         988.77      1.72188e+8 
         988.97      1.74308e+8 
        989.028      1.74851e+8 
         989.17      1.76163e+8 
        989.312      1.77451e+8 
        989.454      1.78663e+8 
        989.596      1.78955e+8 
        989.739      1.78754e+8 
        989.881      1.78513e+8 
        990.023      1.78234e+8 
        990.165       1.7792e+8 
        990.307      1.78088e+8 
        990.449      1.78413e+8 
        990.591      1.78708e+8 
        990.733      1.78972e+8 
        990.875      1.79207e+8 
        991.017      1.80825e+8 
         991.16      1.82529e+8 
        991.302      1.84234e+8 
        991.444      1.85921e+8 
        991.586      1.87793e+8 
        991.728      1.90704e+8 
         991.87      1.93632e+8 
        992.012      1.96548e+8 
        992.154      1.99522e+8 
        992.296      2.02896e+8 
        992.438       2.0717e+8 
        992.581      2.11592e+8 
        992.723      2.16171e+8 
        993.007      2.25934e+8 
        993.291      2.36286e+8 
        993.433      2.41788e+8 
        993.575      2.47511e+8 
        993.717      2.52098e+8 
