# Koester WD models
# teff = 18500 K (value for the effective temperature for the model. Temperatures are given in K)
# logg = 8.25 log(cm/s2) (value for Log(G) for the model.)
#
# column 1: WAVELENGTH (ANGSTROM), Wavelength in Angstrom
# column 2: FLUX (ERG/CM2/S/A), Flux in erg/cm2/s/A
         899.23      4.21586e+6 
        904.235      4.40945e+6 
         908.45      4.57721e+6 
        909.241      4.60912e+6 
        910.032       4.6412e+6 
        911.193      4.68858e+6 
        911.613      4.70563e+6 
        911.824      4.71409e+6 
        911.929      4.71826e+6 
        912.034      4.72244e+6 
        912.139      4.80076e+6 
        912.244      4.87817e+6 
        912.349      4.95489e+6 
        912.454      5.03092e+6 
        912.559      5.10612e+6 
        912.664      5.18002e+6 
         912.77      5.25246e+6 
        912.875       5.3222e+6 
        912.886      5.32924e+6 
         912.98      5.38604e+6 
        913.085      5.43549e+6 
        913.284      5.48949e+6 
        913.433      5.50677e+6 
        913.445      5.50674e+6 
        913.483      5.51086e+6 
        913.533       5.5211e+6 
        913.633       5.5418e+6 
        913.822       5.4883e+6 
        913.855      5.50121e+6 
         914.01      5.53231e+6 
        914.165      5.31847e+6 
         914.32      5.56499e+6 
        914.375      5.56467e+6 
        914.475      5.25654e+6 
        914.575      4.98558e+6 
        914.676      5.29669e+6 
        914.776      5.63627e+6 
        914.876      5.50504e+6 
        914.881      5.48346e+6 
        914.976      4.91464e+6 
        915.071      4.50388e+6 
        915.261      5.59684e+6 
        915.451      5.58553e+6 
        915.592      4.43351e+6 
        915.642      4.05463e+6 
        915.692      3.98778e+6 
        915.792       4.7789e+6 
        915.892      5.74996e+6 
        915.992      6.28749e+6 
        916.092      6.28963e+6 
        916.192      5.74616e+6 
        916.292      4.72876e+6 
        916.342      4.12318e+6 
        916.392      3.63533e+6 
        916.442      3.52455e+6 
        916.543      4.46684e+6 
        916.643      5.73416e+6 
        916.743        6.675e+6 
        916.843      7.18162e+6 
        916.943      7.20832e+6 
        917.043      6.72414e+6 
        917.143      5.78518e+6 
        917.243      4.50841e+6 
        917.293      3.79398e+6 
        917.343      3.24671e+6 
        917.393      3.14307e+6 
        917.494      4.22814e+6 
        917.594      5.67281e+6 
        917.694      6.89108e+6 
        917.794      7.82087e+6 
        917.894      8.39704e+6 
        917.994      8.57253e+6 
        918.094      8.34024e+6 
        918.194       7.6757e+6 
        918.294      6.69916e+6 
        918.394      5.44133e+6 
        918.495      3.87911e+6 
        918.545      3.18382e+6 
        918.595      2.84353e+6 
        918.645      3.03359e+6 
        918.745       4.5025e+6 
        918.845      5.98103e+6 
        919.045      8.46128e+6 
        919.195      9.72854e+6 
        919.245      1.00058e+7 
        919.295      1.02017e+7 
        919.396      1.03603e+7 
        919.496       1.0259e+7 
        919.596      9.84471e+6 
        919.696      9.13603e+6 
        919.796      8.17094e+6 
        919.896      6.98505e+6 
        919.996      5.61308e+6 
        920.096       3.9841e+6 
        920.146      3.15614e+6 
        920.196      2.69402e+6 
        920.246      2.75237e+6 
        920.346      4.21671e+6 
        920.447      5.80739e+6 
        920.547      7.22381e+6 
        920.647      8.51029e+6 
        920.747      9.63985e+6 
        920.847      1.06303e+7 
        920.947      1.14233e+7 
        921.047      1.20112e+7 
        921.147      1.24247e+7 
        921.247      1.26316e+7 
        921.348      1.26683e+7 
        921.448      1.25174e+7 
        921.548      1.21621e+7 
        921.648       1.1609e+7 
        921.748      1.08731e+7 
        921.848      9.93921e+6 
        921.948      8.88229e+6 
        922.048      7.63065e+6 
        922.148      6.23647e+6 
        922.248      4.65669e+6 
        922.292      3.80852e+6 
        922.349      2.88051e+6 
        922.405      2.57345e+6 
        922.517       3.8171e+6 
        922.629      5.78103e+6 
        922.672      6.43986e+6 
        922.741      7.43426e+6 
         922.81      8.37238e+6 
        922.948      1.00419e+7 
        923.086      1.15515e+7 
        923.224      1.28389e+7 
        923.363      1.39374e+7 
        923.501      1.47796e+7 
        923.639      1.53827e+7 
        923.777      1.57478e+7 
        923.915      1.59233e+7 
        924.053      1.59076e+7 
        924.191      1.56656e+7 
         924.33      1.51889e+7 
        924.468      1.44475e+7 
        924.606      1.34446e+7 
        924.744      1.22592e+7 
        924.882      1.08714e+7 
         925.02      9.30094e+6 
        925.158      7.45968e+6 
        925.297      5.25943e+6 
        925.385      3.57956e+6 
        925.435      2.74066e+6 
        925.485      2.56607e+6 
        925.585      3.62471e+6 
        925.685      5.52653e+6 
        925.785      7.15256e+6 
        925.885      8.58842e+6 
        925.985      9.86055e+6 
        926.085      1.10451e+7 
        926.185       1.2163e+7 
        926.202      1.23422e+7 
        926.286       1.3181e+7 
        926.369      1.40101e+7 
        926.535      1.55427e+7 
        926.701      1.68373e+7 
        926.867      1.79126e+7 
        927.033      1.87602e+7 
        927.199      1.94219e+7 
        927.366      1.99213e+7 
        927.532      2.02632e+7 
        927.698      2.04543e+7 
        927.864      2.05012e+7 
        927.878      2.04985e+7 
         928.03      2.03965e+7 
        928.182      2.00672e+7 
        928.335      1.95441e+7 
        928.487      1.88273e+7 
        928.639      1.79185e+7 
        928.791      1.68656e+7 
        928.797      1.68256e+7 
        928.943       1.5769e+7 
        929.089      1.45656e+7 
        929.185      1.36723e+7 
        929.235      1.31812e+7 
        929.285      1.26851e+7 
        929.386      1.16156e+7 
        929.429      1.11205e+7 
        929.486      1.04583e+7 
        929.543      9.75917e+6 
        929.545        9.734e+6 
        929.657      8.21413e+6 
        929.769      6.44617e+6 
        929.831      5.32384e+6 
        929.881       4.3162e+6 
        929.931       3.2054e+6 
        929.981      2.66705e+6 
        930.025      2.64595e+6 
        930.031       2.6528e+6 
        930.081      3.06993e+6 
        930.137      4.28529e+6 
        930.199      5.53417e+6 
        930.249      6.43986e+6 
        930.299      7.28212e+6 
        930.322      7.62791e+6 
          930.4        8.792e+6 
        930.478      9.84453e+6 
        930.634      1.17476e+7 
        930.649      1.19224e+7 
         930.79      1.34527e+7 
        930.931      1.48888e+7 
        931.072      1.61905e+7 
        931.213      1.73974e+7 
        931.355      1.86307e+7 
        931.436      1.93269e+7 
        931.496      1.98327e+7 
        931.536      2.01704e+7 
        931.637      2.09667e+7 
        931.737      2.17106e+7 
        931.838      2.24255e+7 
        931.939      2.30897e+7 
        932.039      2.36742e+7 
         932.14      2.41836e+7 
         932.24      2.46635e+7 
        932.341      2.51105e+7 
        932.442      2.55206e+7 
        932.543      2.59038e+7 
        932.643       2.6259e+7 
        932.744       2.6573e+7 
        932.844       2.6834e+7 
        932.945      2.70652e+7 
        933.045      2.72696e+7 
        933.089      2.73508e+7 
        933.246      2.75961e+7 
        933.265      2.76209e+7 
        933.403      2.77698e+7 
        933.432      2.77916e+7 
        933.542      2.78513e+7 
        933.652      2.78694e+7 
        933.762      2.78437e+7 
        933.872      2.77723e+7 
        933.982      2.76371e+7 
        934.092      2.74284e+7 
        934.202      2.71603e+7 
        934.312      2.68317e+7 
        934.413      2.64889e+7 
        934.422       2.6458e+7 
        934.533      2.60477e+7 
        934.652      2.55355e+7 
        934.771      2.49525e+7 
         934.89      2.43068e+7 
        935.009      2.35906e+7 
        935.026      2.34826e+7 
        935.128      2.28544e+7 
         935.23      2.22676e+7 
        935.332      2.16481e+7 
        935.434      2.10035e+7 
        935.537      2.03278e+7 
        935.639      1.96148e+7 
        935.741      1.88729e+7 
        935.843      1.80854e+7 
        935.945      1.72419e+7 
         935.95       1.7199e+7 
        936.047       1.6345e+7 
        936.144      1.54394e+7 
        936.338      1.35029e+7 
        936.464      1.21106e+7 
        936.532      1.12934e+7 
        936.601      1.04196e+7 
        936.645      9.82213e+6 
        936.714      8.82131e+6 
        936.737       8.4676e+6 
        936.829      6.93827e+6 
        936.887      5.81597e+6 
        936.944        4.561e+6 
        936.951      4.39226e+6 
        937.001      3.16384e+6 
        937.051      2.81853e+6 
        937.101      2.82675e+6 
        937.151      3.31843e+6 
        937.201      4.59492e+6 
        937.251      5.71217e+6 
        937.301      6.70739e+6 
        937.351      7.60686e+6 
        937.359      7.74076e+6 
        937.451       9.1972e+6 
        937.543      1.05048e+7 
        937.728      1.28026e+7 
        937.824      1.38669e+7 
        937.912       1.4797e+7 
            938      1.56898e+7 
        938.176      1.73851e+7 
        938.352      1.89407e+7 
        938.528      2.03703e+7 
        938.705      2.17419e+7 
        938.831      2.26916e+7 
        938.881      2.30665e+7 
        938.931       2.3438e+7 
        939.031      2.41754e+7 
        939.181      2.54314e+7 
        939.223      2.57839e+7 
        939.231      2.58506e+7 
        939.281      2.62643e+7 
        939.381       2.7075e+7 
        939.581      2.86631e+7 
        939.602      2.88257e+7 
        939.982      3.17948e+7 
        940.171      3.32657e+7 
        940.361      3.46144e+7 
         940.55      3.58955e+7 
         940.69      3.68082e+7 
         940.74      3.71258e+7 
         940.79      3.74208e+7 
        940.891      3.79982e+7 
        941.091      3.90974e+7 
        941.291      4.01178e+7 
        941.491      4.09745e+7 
        941.691       4.1737e+7 
        941.891       4.2436e+7 
        942.092      4.30678e+7 
        942.292      4.36232e+7 
        942.337      4.37313e+7 
        942.492      4.40693e+7 
        942.515      4.41139e+7 
        942.692      4.44249e+7 
         942.87       4.4659e+7 
        943.048      4.48117e+7 
        943.225      4.48849e+7 
        943.403      4.48224e+7 
         943.58      4.46493e+7 
        943.758      4.43602e+7 
        943.935       4.3954e+7 
        944.114      4.34108e+7 
        944.291      4.27153e+7 
        944.469      4.18925e+7 
        944.646      4.09469e+7 
        944.824        3.994e+7 
        945.051      3.86089e+7 
        945.179      3.77993e+7 
        945.308      3.69527e+7 
        945.564      3.52081e+7 
         945.82      3.33464e+7 
        946.076      3.15711e+7 
        946.333      2.98208e+7 
        946.589      2.81806e+7 
        947.044      2.51692e+7 
        947.101      2.47841e+7 
        947.158      2.43952e+7 
        947.272      2.36034e+7 
        947.386      2.27911e+7 
        947.501      2.19521e+7 
        947.615       2.1079e+7 
        947.729      2.01653e+7 
        947.831      1.92985e+7 
        947.843       1.9193e+7 
        947.957      1.81522e+7 
        948.083      1.69248e+7 
        948.209      1.56137e+7 
        948.335      1.42118e+7 
        948.377      1.37115e+7 
        948.461      1.26565e+7 
        948.546      1.15134e+7 
        948.651      9.93485e+6 
        948.661       9.7739e+6 
        948.714      8.88961e+6 
        948.777      7.74076e+6 
        948.835      6.51444e+6 
        948.893      5.07653e+6 
        948.901      4.86017e+6 
        948.951      3.41953e+6 
        949.001      3.16264e+6 
        949.049      3.16471e+6 
        949.051      3.16506e+6 
        949.101      3.53379e+6 
        949.153      5.08872e+6 
        949.207      6.44623e+6 
        949.257      7.53495e+6 
        949.307       8.4927e+6 
        949.314      8.61843e+6 
        949.407      1.01915e+7 
          949.5      1.16052e+7 
        949.687      1.40791e+7 
        949.783      1.52108e+7 
        949.873      1.62176e+7 
        949.963      1.71793e+7 
        950.143      1.89844e+7 
        950.323      2.06294e+7 
        950.503      2.21401e+7 
        950.683      2.35688e+7 
        950.814      2.45662e+7 
        950.864      2.49444e+7 
        950.914      2.53201e+7 
        951.014      2.60656e+7 
        951.214      2.75561e+7 
        951.414      2.90443e+7 
        951.614      3.05446e+7 
        951.814       3.2119e+7 
        952.015      3.38042e+7 
        952.092      3.44655e+7 
        952.215      3.55876e+7 
        952.415      3.75555e+7 
        952.577      3.91678e+7 
        952.738      4.08193e+7 
        952.899      4.25494e+7 
        953.061      4.43225e+7 
        953.223      4.61409e+7 
        953.385      4.81091e+7 
        953.546      5.02045e+7 
        953.708       5.2348e+7 
        954.031      5.67447e+7 
        954.355       6.1153e+7 
        954.678      6.56254e+7 
        955.001      6.98373e+7 
        955.324      7.37297e+7 
        955.648      7.75298e+7 
        955.921      8.05413e+7 
        955.971      8.10603e+7 
        956.021      8.15787e+7 
        956.121      8.26255e+7 
        956.321      8.46977e+7 
        956.722      8.87415e+7 
        957.122      9.26327e+7 
        957.522      9.63395e+7 
        957.923      9.98266e+7 
        958.323      1.03077e+8 
        958.723      1.06068e+8 
        958.959      1.07672e+8 
        959.124      1.08724e+8 
        959.289      1.09713e+8 
        959.619      1.11592e+8 
        959.949      1.13177e+8 
         960.13      1.13913e+8 
         960.28      1.14445e+8 
         960.43      1.14903e+8 
         960.73       1.1593e+8 
         961.03      1.16597e+8 
        961.331      1.16893e+8 
        961.631      1.16796e+8 
        961.931      1.16299e+8 
        962.231      1.15398e+8 
        962.532      1.14087e+8 
        962.832      1.12378e+8 
        963.132      1.10238e+8 
        963.234      1.09431e+8 
        963.432      1.07754e+8 
        963.483      1.07293e+8 
        963.733      1.04916e+8 
        963.982       1.0235e+8 
        964.231      9.95527e+7 
         964.48      9.66191e+7 
        964.729      9.35566e+7 
        964.979      9.03327e+7 
        965.228      8.70397e+7 
        965.726      8.02372e+7 
        966.225      7.34369e+7 
        966.411      7.09365e+7 
        966.723      6.68456e+7 
        966.816      6.56257e+7 
        967.221      6.05363e+7 
        967.425      5.81044e+7 
        967.627      5.57356e+7 
         967.83      5.34564e+7 
        967.982      5.17932e+7 
        968.032      5.12479e+7 
        968.082      5.07047e+7 
        968.182      4.96347e+7 
        968.382      4.75546e+7 
        968.582      4.55446e+7 
        968.783      4.35852e+7 
        969.069      4.08677e+7 
        969.124      4.03547e+7 
        969.183      3.98065e+7 
        969.297       3.8755e+7 
        969.525      3.66586e+7 
        969.927      3.29845e+7 
        970.128      3.11105e+7 
        970.328      2.91882e+7 
        970.428      2.81965e+7 
        970.528      2.71782e+7 
        970.629      2.61233e+7 
        970.729      2.50036e+7 
        970.779      2.44241e+7 
        970.829      2.38346e+7 
        970.879      2.32294e+7 
        970.979      2.19607e+7 
        971.079      2.05983e+7 
         971.18      1.91187e+7 
        971.212      1.86104e+7 
         971.28      1.74904e+7 
        971.348      1.62811e+7 
        971.382      1.56378e+7 
        971.484      1.35394e+7 
        971.585      1.11129e+7 
        971.636      9.73281e+6 
        971.686       8.2862e+6 
        971.736      6.71415e+6 
        971.786      4.98637e+6 
        971.836      3.92156e+6 
        971.886      4.81283e+6 
        971.936      6.55814e+6 
        971.986       8.1551e+6 
        972.036      9.62282e+6 
        972.086      1.09867e+7 
        972.136       1.2251e+7 
        972.149      1.25547e+7 
        972.236      1.45196e+7 
        972.324      1.62594e+7 
          972.5      1.92362e+7 
        972.552      2.00181e+7 
        972.675      2.17125e+7 
        972.798      2.32465e+7 
        972.921        2.464e+7 
        973.044      2.59247e+7 
        973.167      2.71197e+7 
         973.29      2.82399e+7 
        973.413      2.93193e+7 
        973.536      3.03566e+7 
        973.573      3.06623e+7 
        973.659      3.13628e+7 
        973.746       3.2054e+7 
        973.918      3.34184e+7 
        974.262      3.60353e+7 
        974.606      3.86994e+7 
        974.949      4.12582e+7 
        975.295      4.39889e+7 
         975.64      4.65245e+7 
        975.985        4.922e+7 
        976.157      5.05633e+7 
        976.331      5.19645e+7 
        976.503      5.34366e+7 
        976.676      5.50005e+7 
        976.848      5.66781e+7 
        977.021      5.84921e+7 
        977.193      6.04769e+7 
        977.366      6.24825e+7 
        977.538      6.43964e+7 
        977.712      6.64642e+7 
        977.884      6.87107e+7 
        978.057      7.09708e+7 
        978.229       7.3234e+7 
        978.402        7.568e+7 
        978.574      7.83438e+7 
        978.747      8.13022e+7 
        978.881       8.3812e+7 
         978.92      8.45984e+7 
        978.987      8.59713e+7 
        979.093      8.82948e+7 
        979.199      9.08043e+7 
        979.305      9.35236e+7 
        979.411       9.5965e+7 
        979.517      9.85788e+7 
        979.623      1.01385e+8 
        979.729      1.04408e+8 
        979.835      1.07672e+8 
        979.941      1.11217e+8 
        980.047      1.14186e+8 
        980.153      1.16889e+8 
        980.366      1.22685e+8 
        980.578      1.29094e+8 
         980.79      1.34934e+8 
        981.002        1.404e+8 
        981.214      1.46175e+8 
        981.426       1.5203e+8 
        981.851      1.64005e+8 
        982.275      1.76136e+8 
        982.699       1.8853e+8 
        982.912      1.94942e+8 
        983.124       2.0155e+8 
        983.173      2.03108e+8 
        983.336      2.08381e+8 
        983.361      2.09188e+8 
        983.548        2.157e+8 
        983.736       2.2244e+8 
        983.923      2.29442e+8 
        984.299      2.43467e+8 
        985.049      2.71524e+8 
          985.8      3.00277e+8 
        986.482      3.27414e+8 
         986.55      3.30125e+8 
        986.618      3.32852e+8 
        986.754      3.38177e+8 
         986.89      3.41334e+8 
        987.027      3.44334e+8 
        987.299      3.50146e+8 
        987.571       3.5566e+8 
        987.843      3.60689e+8 
        987.979      3.63118e+8 
        988.115      3.65477e+8 
        988.251      3.69734e+8 
        988.388      3.74223e+8 
         988.66      3.83164e+8 
        988.932      3.90786e+8 
        989.096      3.94289e+8 
        989.204      3.96557e+8 
        989.312      3.98794e+8 
         989.42      4.00914e+8 
        989.528      4.02479e+8 
        989.636      4.02334e+8 
        989.745      4.02136e+8 
        989.853      4.01888e+8 
        989.961       4.0159e+8 
        990.177      4.00848e+8 
        990.393      4.01964e+8 
        990.609      4.03201e+8 
        990.717      4.03761e+8 
