# Koester WD models
# teff = 18250 K (value for the effective temperature for the model. Temperatures are given in K)
# logg = 8.75 log(cm/s2) (value for Log(G) for the model.)
#
# column 1: WAVELENGTH (ANGSTROM), Wavelength in Angstrom
# column 2: FLUX (ERG/CM2/S/A), Flux in erg/cm2/s/A
         899.23      3.59304e+6 
        899.439      3.59995e+6 
        899.856      3.61381e+6 
        900.491      3.63495e+6 
        900.692      3.64167e+6 
        902.363      3.69781e+6 
        904.235      3.76146e+6 
        906.719      3.84707e+6 
        907.979      3.89102e+6 
         908.45      3.90748e+6 
        909.241      3.93528e+6 
        910.032      3.96318e+6 
        911.193      4.00427e+6 
        911.613       4.0191e+6 
        911.824      4.02645e+6 
        911.929       4.0301e+6 
        912.034      4.03371e+6 
        912.139      4.08039e+6 
        912.244      4.12708e+6 
        912.349      4.17332e+6 
        912.454      4.21884e+6 
        912.559      4.26383e+6 
        912.664       4.3081e+6 
         912.77      4.35145e+6 
        912.875      4.39314e+6 
        912.886      4.39735e+6 
        913.085      4.46669e+6 
        913.284      4.52264e+6 
        913.339      4.53373e+6 
        913.435      4.55204e+6 
        913.483      4.56329e+6 
        913.531      4.57297e+6 
        913.625      4.58292e+6 
        913.724      4.58836e+6 
        913.822      4.59964e+6 
        913.871      4.60429e+6 
        914.018      4.59068e+6 
        914.165       4.5599e+6 
        914.312      4.59728e+6 
        914.343      4.59624e+6 
        914.459      4.50416e+6 
        914.575      4.41422e+6 
        914.692      4.52107e+6 
        914.808      4.59175e+6 
        914.924      4.40866e+6 
        915.009      4.19585e+6 
         915.04       4.1447e+6 
        915.071      4.12818e+6 
        915.133       4.2103e+6 
        915.257      4.54752e+6 
        915.381      4.64136e+6 
        915.505      4.28501e+6 
        915.609      3.84939e+6 
        915.617      3.82558e+6 
         915.63      3.78408e+6 
        915.643      3.75279e+6 
        915.677      3.72345e+6 
        915.745      3.88844e+6 
        915.881      4.58349e+6 
        916.017       4.9542e+6 
        916.153      4.75304e+6 
        916.289      4.00405e+6 
        916.379      3.44997e+6 
        916.421      3.34115e+6 
        916.425      3.33936e+6 
        916.429      3.33917e+6 
        916.479      3.46725e+6 
         916.58      4.15284e+6 
         916.68      4.87211e+6 
         916.78      5.36669e+6 
         916.88      5.57997e+6 
         916.98      5.45154e+6 
         917.08      5.01536e+6 
         917.18      4.29754e+6 
        917.182      4.28114e+6 
         917.28      3.41526e+6 
        917.378      2.92632e+6 
        917.575      4.36188e+6 
        917.771      5.87019e+6 
        917.967      6.50504e+6 
        918.163      6.03302e+6 
        918.359      4.57922e+6 
         918.51      3.10031e+6 
        918.556      2.73444e+6 
        918.602      2.60083e+6 
        918.694      3.10854e+6 
        918.878      4.99077e+6 
        919.062      6.56797e+6 
        919.201      7.38862e+6 
        919.241      7.55006e+6 
        919.246      7.56766e+6 
        919.251      7.58468e+6 
        919.301      7.71949e+6 
        919.402      7.81776e+6 
        919.502      7.72408e+6 
        919.602      7.39141e+6 
        919.702      6.83171e+6 
        919.802      6.12702e+6 
        919.902      5.25365e+6 
        920.002      4.26418e+6 
        920.102      3.14194e+6 
        920.165      2.54716e+6 
        920.189      2.42673e+6 
        920.202      2.39446e+6 
        920.215      2.38379e+6 
        920.265      2.54989e+6 
        920.366      3.59301e+6 
        920.466      4.67346e+6 
        920.566      5.66696e+6 
        920.666      6.60614e+6 
        920.766      7.43006e+6 
        920.866      8.18401e+6 
        920.966      8.77268e+6 
        921.066      9.22211e+6 
        921.166      9.52748e+6 
        921.266      9.66916e+6 
        921.367      9.66781e+6 
        921.467      9.51001e+6 
        921.567       9.1765e+6 
        921.667      8.70001e+6 
        921.767      8.08451e+6 
        921.867      7.32531e+6 
        921.967      6.50599e+6 
        922.067      5.56678e+6 
        922.167       4.5194e+6 
        922.267       3.3807e+6 
        922.331      2.61825e+6 
        922.368      2.34944e+6 
        922.405      2.26927e+6 
        922.479      2.62228e+6 
        922.627      4.38265e+6 
         922.74      5.59772e+6 
        922.775      5.94524e+6 
         922.81      6.30037e+6 
         922.88       6.9449e+6 
         923.02      8.20392e+6 
         923.16      9.33031e+6 
        923.301      1.03361e+7 
        923.441      1.11358e+7 
        923.581      1.17313e+7 
        923.721       1.2121e+7 
        923.861      1.23297e+7 
        924.001      1.23723e+7 
        924.141      1.22326e+7 
        924.282      1.18941e+7 
        924.422      1.13406e+7 
        924.562      1.05724e+7 
        924.702      9.60872e+6 
        924.842      8.54036e+6 
        924.982      7.30383e+6 
        925.122      5.97562e+6 
        925.262       4.4266e+6 
        925.322      3.69216e+6 
        925.403      2.65266e+6 
        925.484      2.23984e+6 
        925.646      3.70413e+6 
        925.808      5.62845e+6 
         925.97      7.25494e+6 
        926.132       8.7684e+6 
         926.22      9.52826e+6 
        926.295      1.01428e+7 
        926.369      1.07596e+7 
        926.517      1.18897e+7 
        926.665       1.2874e+7 
        926.813      1.37231e+7 
        926.961      1.44284e+7 
        927.109      1.49952e+7 
        927.257      1.54457e+7 
        927.406      1.57855e+7 
        927.554      1.60134e+7 
        927.702      1.61435e+7 
         927.85      1.61757e+7 
        927.998       1.6106e+7 
        928.038      1.60648e+7 
         928.11      1.59501e+7 
        928.146      1.58801e+7 
        928.182       1.5801e+7 
        928.327      1.53924e+7 
        928.471      1.48559e+7 
        928.615      1.41683e+7 
        928.717      1.35917e+7 
        928.759      1.33303e+7 
        928.903      1.24798e+7 
        928.917      1.23903e+7 
        929.089      1.12129e+7 
        929.261      9.84742e+6 
        929.325      9.32195e+6 
        929.434      8.34665e+6 
        929.543      7.32098e+6 
        929.652      6.21347e+6 
        929.719      5.47061e+6 
        929.753      5.07034e+6 
        929.755       5.0454e+6 
        929.761      4.97047e+6 
        929.769      4.87032e+6 
        929.819      4.22265e+6 
        929.827      4.11502e+6 
        929.883      3.33188e+6 
         929.91      2.93441e+6 
        929.939      2.55377e+6 
        929.954      2.42928e+6 
        929.968      2.34982e+6 
        929.982      2.31374e+6 
        929.996      2.29865e+6 
         930.01       2.2949e+6 
        930.024      2.29932e+6 
        930.038      2.31508e+6 
        930.052      2.35187e+6 
        930.081      2.55749e+6 
        930.137       3.3403e+6 
        930.201      4.23835e+6 
        930.247       4.8416e+6 
        930.249      4.86727e+6 
        930.251       4.8929e+6 
        930.301      5.50112e+6 
        930.326      5.77365e+6 
        930.402      6.61378e+6 
        930.478      7.38774e+6 
         930.63      8.85373e+6 
        930.633      8.88197e+6 
        930.782       1.0207e+7 
        930.931      1.14744e+7 
         931.08      1.26202e+7 
        931.229      1.36909e+7 
        931.379      1.47862e+7 
        931.516        1.573e+7 
        931.528        1.581e+7 
        931.677      1.67417e+7 
        931.838      1.76727e+7 
        931.999      1.85016e+7 
         932.16      1.91719e+7 
        932.321      1.97718e+7 
        932.483      2.02988e+7 
        932.644      2.07623e+7 
        932.805      2.11351e+7 
        932.966      2.14258e+7 
        933.127      2.16628e+7 
        933.173      2.17206e+7 
        933.265      2.18222e+7 
        933.288      2.18447e+7 
        933.403      2.19383e+7 
        933.432      2.19548e+7 
        933.542      2.19991e+7 
        933.652      2.20107e+7 
        933.762      2.19868e+7 
        933.872      2.19269e+7 
        933.982      2.18201e+7 
        934.092      2.16608e+7 
        934.202      2.14559e+7 
        934.312      2.12035e+7 
        934.413      2.09407e+7 
        934.422      2.09171e+7 
        934.533      2.06047e+7 
        934.652      2.02145e+7 
        934.771      1.97694e+7 
         934.89      1.92784e+7 
        935.009      1.87255e+7 
        935.026      1.86414e+7 
        935.128      1.81427e+7 
         935.23       1.7658e+7 
        935.332      1.71436e+7 
        935.434      1.66083e+7 
        935.537      1.60472e+7 
        935.639      1.54558e+7 
        935.741       1.4834e+7 
        935.843      1.41728e+7 
        935.945      1.34646e+7 
         935.95      1.34287e+7 
        936.047      1.27123e+7 
        936.144      1.19539e+7 
        936.338       1.0329e+7 
        936.464      9.18869e+6 
        936.532      8.53319e+6 
        936.601      7.84566e+6 
        936.645      7.38645e+6 
        936.714      6.63049e+6 
        936.737      6.36769e+6 
        936.829      5.24885e+6 
        936.887      4.43021e+6 
        936.944      3.55022e+6 
        936.973      3.06833e+6 
        937.001      2.65311e+6 
        937.015      2.53939e+6 
        937.029      2.47522e+6 
        937.043      2.45441e+6 
        937.058      2.44791e+6 
        937.072      2.44669e+6 
        937.086      2.44861e+6 
        937.101      2.45586e+6 
        937.115      2.47739e+6 
        937.143      2.65692e+6 
         937.15      2.74519e+6 
        937.186       3.3271e+6 
        937.199       3.5434e+6 
         937.25      4.34215e+6 
        937.314      5.25956e+6 
        937.341      5.61205e+6 
        937.442      6.81217e+6 
        937.543       7.9122e+6 
        937.645      8.94556e+6 
        937.746      9.91719e+6 
        937.847      1.08285e+7 
        937.896      1.12643e+7 
        937.948      1.17184e+7 
            938      1.21577e+7 
        938.104      1.30127e+7 
        938.208      1.38259e+7 
        938.312         1.46e+7 
        938.416      1.53322e+7 
         938.52      1.60323e+7 
        938.543      1.61843e+7 
        938.556      1.62703e+7 
        938.624      1.67133e+7 
        938.729      1.73723e+7 
        938.914      1.85217e+7 
        939.093      1.96234e+7 
        939.271      2.07764e+7 
        939.449      2.18646e+7 
        939.628      2.29152e+7 
        939.807      2.39352e+7 
        939.986       2.4979e+7 
        940.164      2.59714e+7 
        940.343      2.68827e+7 
        940.521      2.77394e+7 
         940.58      2.80105e+7 
         940.66      2.83732e+7 
          940.7       2.8551e+7 
         940.74      2.87252e+7 
        940.901      2.93443e+7 
        941.061      2.99253e+7 
        941.221      3.04691e+7 
        941.381      3.09642e+7 
        941.541      3.13882e+7 
        941.701      3.17847e+7 
        942.022      3.24941e+7 
        942.342      3.30807e+7 
        942.662      3.35139e+7 
        942.917      3.37539e+7 
        942.982      3.37991e+7 
        943.048      3.38378e+7 
        943.178      3.38965e+7 
        943.438      3.38752e+7 
        943.698      3.36977e+7 
        943.828      3.35488e+7 
        943.958      3.33587e+7 
        944.088      3.31202e+7 
        944.219      3.28278e+7 
        944.349      3.24894e+7 
        944.479      3.21042e+7 
        944.609      3.16739e+7 
        944.691      3.13782e+7 
        944.739       3.1197e+7 
        944.845      3.08139e+7 
        944.999      3.02213e+7 
        945.153      2.95792e+7 
        945.308      2.88918e+7 
        945.462      2.81916e+7 
        945.616      2.74598e+7 
         945.77      2.66845e+7 
        945.924      2.58873e+7 
        946.232       2.4317e+7 
         946.54      2.27644e+7 
        946.849      2.11632e+7 
        947.004      2.03269e+7 
        947.158      1.94635e+7 
        947.312      1.85647e+7 
        947.468      1.76219e+7 
        947.471      1.76032e+7 
        947.622      1.66275e+7 
        947.624      1.66175e+7 
        947.777      1.55655e+7 
         947.93      1.44134e+7 
        948.033      1.35833e+7 
        948.083      1.31622e+7 
        948.133      1.27333e+7 
        948.233      1.18332e+7 
        948.333      1.09064e+7 
        948.433      9.91166e+6 
        948.495      9.26358e+6 
        948.521       8.9821e+6 
        948.534       8.8498e+6 
        948.546      8.71679e+6 
        948.596       8.1529e+6 
        948.615      7.93346e+6 
        948.661      7.38431e+6 
        948.696      6.95153e+6 
        948.777      5.88015e+6 
        948.835      4.97911e+6 
        948.893      3.96384e+6 
        948.922      3.39927e+6 
        948.951      2.90245e+6 
        948.966      2.79655e+6 
         948.98      2.76055e+6 
        948.994      2.75439e+6 
        949.009      2.75363e+6 
        949.023      2.75384e+6 
        949.037      2.75439e+6 
        949.052      2.75596e+6 
        949.066      2.76289e+6 
        949.095      2.90656e+6 
        949.153      3.97361e+6 
         949.23      5.30373e+6 
        949.258       5.7478e+6 
        949.269      5.90635e+6 
         949.28      6.06356e+6 
         949.33      6.73491e+6 
         949.36      7.11929e+6 
         949.43      7.97829e+6 
          949.5      8.78873e+6 
         949.64      1.03031e+7 
        949.781      1.16896e+7 
        949.795      1.18213e+7 
        949.879      1.26103e+7 
        949.921      1.29929e+7 
        949.963      1.33668e+7 
        950.131      1.47952e+7 
        950.299       1.6107e+7 
        950.467      1.73141e+7 
        950.635      1.84523e+7 
        950.719      1.90033e+7 
        950.804      1.95428e+7 
        950.888      2.00728e+7 
        951.056      2.11099e+7 
        951.392      2.31251e+7 
         951.56      2.41216e+7 
        951.728      2.51164e+7 
        951.896      2.61929e+7 
        952.065      2.72735e+7 
        952.233      2.83935e+7 
        952.401      2.95591e+7 
        952.688      3.15341e+7 
        952.737      3.18903e+7 
        952.788      3.22623e+7 
        952.888      3.29958e+7 
        953.089      3.44774e+7 
        953.289      3.59807e+7 
        953.489      3.76111e+7 
        953.889      4.09007e+7 
         954.29      4.41102e+7 
         954.49      4.56762e+7 
         954.69      4.72188e+7 
         954.89       4.8678e+7 
         955.09      4.99708e+7 
         955.29      5.12334e+7 
        955.491      5.24665e+7 
        955.768      5.41265e+7 
        955.891      5.48129e+7 
        956.014      5.54818e+7 
         956.26      5.68126e+7 
        956.753       5.9366e+7 
        957.245       6.1765e+7 
        957.738      6.39927e+7 
        958.156      6.57356e+7 
         958.23      6.60294e+7 
        958.722      6.78757e+7 
        959.289      6.96921e+7 
        959.572      7.05027e+7 
        959.855      7.12139e+7 
        960.139      7.18247e+7 
         960.38      7.22532e+7 
        960.414      7.23069e+7 
        960.422      7.23191e+7 
         960.43      7.23317e+7 
         960.48      7.24319e+7 
         960.58      7.26204e+7 
         960.78      7.29462e+7 
         961.18      7.33747e+7 
        961.581      7.35026e+7 
        961.981      7.33135e+7 
        962.381      7.27964e+7 
        962.782      7.19538e+7 
        963.182      7.07549e+7 
        963.582      6.92464e+7 
        963.735      6.85932e+7 
        963.983      6.74431e+7 
        964.231      6.61685e+7 
        964.479      6.48032e+7 
        964.727      6.33549e+7 
        964.976      6.18052e+7 
        965.472      5.85027e+7 
        965.968      5.49691e+7 
        966.465      5.13135e+7 
        966.961       4.7608e+7 
        967.876      4.09086e+7 
        967.954      4.03544e+7 
        968.032      3.97971e+7 
        968.188      3.86802e+7 
          968.5      3.64943e+7 
        968.953      3.33844e+7 
        969.125      3.22073e+7 
        969.297      3.10272e+7 
        969.356      3.06184e+7 
        969.641      2.86219e+7 
        969.927      2.65678e+7 
        970.069      2.54992e+7 
        970.212      2.43965e+7 
        970.354      2.32511e+7 
        970.497      2.20505e+7 
        970.639      2.07845e+7 
         970.69      2.03062e+7 
        970.782      1.94073e+7 
        970.874      1.84685e+7 
        971.058      1.64181e+7 
        971.137      1.54511e+7 
        971.243      1.40591e+7 
        971.348      1.25334e+7 
        971.453      1.08525e+7 
        971.531      9.48868e+6 
        971.558      8.98549e+6 
        971.575       8.6642e+6 
        971.585       8.4713e+6 
        971.639      7.38742e+6 
        971.644      7.28262e+6 
        971.703      5.99695e+6 
        971.732      5.32437e+6 
        971.762      4.60297e+6 
        971.778      4.20675e+6 
        971.792      3.87362e+6 
        971.806       3.5866e+6 
        971.821      3.43184e+6 
        971.827      3.42575e+6 
        971.833      3.42588e+6 
        971.836      3.42597e+6 
        971.839      3.42606e+6 
        971.851       3.4265e+6 
        971.866       3.5008e+6 
         971.88      3.74368e+6 
         971.91      4.45908e+6 
        971.969      5.87198e+6 
        972.037      7.36958e+6 
        972.087      8.38802e+6 
        972.137      9.34643e+6 
         972.15      9.58736e+6 
        972.237      1.11148e+7 
        972.324      1.25124e+7 
        972.499      1.49838e+7 
        972.548      1.56088e+7 
        972.673      1.70801e+7 
        972.798      1.84118e+7 
        972.923      1.96185e+7 
        973.048      2.07287e+7 
        973.173      2.17528e+7 
        973.298      2.27108e+7 
        973.423      2.36267e+7 
        973.548      2.45007e+7 
        973.601      2.48601e+7 
        973.673      2.53413e+7 
        973.746      2.58131e+7 
         973.89      2.67393e+7 
        974.178      2.84939e+7 
        974.466      3.02102e+7 
        975.043      3.35318e+7 
        975.556      3.64013e+7 
        975.598      3.66275e+7 
        975.619      3.67409e+7 
         975.64      3.68543e+7 
        975.724      3.73111e+7 
        975.892      3.82454e+7 
        976.228      4.00939e+7 
        976.397      4.10512e+7 
        976.565      4.20493e+7 
        976.733      4.31001e+7 
        976.901       4.4216e+7 
        977.069      4.54076e+7 
        977.237      4.66944e+7 
        977.574        4.911e+7 
         977.91      5.17571e+7 
        978.078      5.30813e+7 
        978.246      5.44149e+7 
        978.414      5.58374e+7 
        978.582      5.73611e+7 
         978.75      5.90236e+7 
        978.919      6.08454e+7 
        979.087      6.28444e+7 
        979.105      6.30709e+7 
        979.205      6.43753e+7 
        979.255      6.50602e+7 
        979.305      6.57692e+7 
        979.505      6.83127e+7 
        979.705      7.11583e+7 
        979.905      7.43829e+7 
        980.105      7.72414e+7 
        980.306       7.9892e+7 
        980.506      8.27577e+7 
        980.706      8.56508e+7 
        980.906      8.80497e+7 
        981.106      9.05501e+7 
        981.506      9.56596e+7 
        982.307      1.05942e+8 
        982.707      1.11094e+8 
        983.108        1.164e+8 
        983.508       1.2204e+8 
        983.863      1.27449e+8 
        983.893      1.27921e+8 
        983.908      1.28158e+8 
        983.923      1.28396e+8 
        983.983      1.29384e+8 
