# Koester WD models
# teff = 18250 K (value for the effective temperature for the model. Temperatures are given in K)
# logg = 8.5 log(cm/s2) (value for Log(G) for the model.)
#
# column 1: WAVELENGTH (ANGSTROM), Wavelength in Angstrom
# column 2: FLUX (ERG/CM2/S/A), Flux in erg/cm2/s/A
         899.23      3.55144e+6 
        904.235      3.71789e+6 
         908.45      3.86234e+6 
        909.241      3.88983e+6 
        910.032      3.91744e+6 
        911.193      3.95819e+6 
        911.613      3.97286e+6 
        911.824      3.98015e+6 
        911.929      3.98376e+6 
        912.034      3.98734e+6 
        912.139      4.04524e+6 
        912.244       4.1027e+6 
        912.349       4.1595e+6 
        912.454       4.2157e+6 
        912.559      4.27122e+6 
        912.664      4.32588e+6 
         912.77      4.37925e+6 
        912.875      4.43071e+6 
        912.886       4.4359e+6 
        913.085      4.51726e+6 
        913.284      4.57231e+6 
        913.339      4.58189e+6 
        913.435      4.59518e+6 
        913.483      4.60422e+6 
        913.531      4.61396e+6 
        913.625      4.62499e+6 
        913.724      4.61742e+6 
        913.822      4.61506e+6 
        913.871      4.62464e+6 
        914.018      4.61651e+6 
        914.165      4.51946e+6 
        914.312      4.63209e+6 
        914.343      4.63994e+6 
        914.459      4.47963e+6 
        914.575      4.29509e+6 
        914.692        4.509e+6 
        914.808      4.66605e+6 
        914.924      4.40263e+6 
        915.009      4.05068e+6 
         915.04      3.95998e+6 
        915.071      3.93073e+6 
        915.133       4.0693e+6 
        915.257      4.61324e+6 
        915.381      4.77418e+6 
        915.505       4.3125e+6 
        915.609      3.68729e+6 
        915.617      3.65034e+6 
         915.63      3.58515e+6 
        915.643      3.53768e+6 
        915.677      3.48547e+6 
        915.745      3.71993e+6 
        915.881       4.6685e+6 
        916.017      5.15397e+6 
        916.153      4.91273e+6 
        916.289      3.97996e+6 
        916.379      3.24134e+6 
        916.421      3.09137e+6 
        916.425      3.08865e+6 
        916.429      3.08797e+6 
        916.479      3.25346e+6 
         916.58      4.13628e+6 
         916.68      5.00864e+6 
         916.78      5.60388e+6 
         916.88      5.87016e+6 
         916.98      5.72813e+6 
         917.08      5.22924e+6 
         917.18      4.40074e+6 
        917.182      4.38117e+6 
         917.28      3.34482e+6 
        917.378      2.72496e+6 
        917.575      4.45399e+6 
        917.771      6.17238e+6 
        917.967      6.90629e+6 
        918.163      6.39415e+6 
        918.359      4.77777e+6 
         918.51      3.06819e+6 
        918.556        2.619e+6 
        918.602      2.45747e+6 
        918.694      3.07557e+6 
        918.878      5.22174e+6 
        919.062         6.97e+6 
        919.201      7.86978e+6 
        919.241      8.04776e+6 
        919.246      8.06717e+6 
        919.251      8.08596e+6 
        919.301      8.23449e+6 
        919.402      8.34715e+6 
        919.502      8.24945e+6 
        919.602      7.89344e+6 
        919.702      7.30068e+6 
        919.802      6.52019e+6 
        919.902      5.56455e+6 
        920.002      4.47294e+6 
        920.102      3.18642e+6 
        920.165        2.473e+6 
        920.189      2.33516e+6 
        920.202      2.29718e+6 
        920.215      2.28509e+6 
        920.265      2.47563e+6 
        920.366      3.71006e+6 
        920.466      4.92039e+6 
        920.566      6.01156e+6 
        920.666      7.03773e+6 
        920.766      7.92162e+6 
        920.866      8.71629e+6 
        920.966      9.33593e+6 
        921.066      9.80362e+6 
        921.166      1.01172e+7 
        921.266      1.02639e+7 
        921.367      1.02647e+7 
        921.467      1.01051e+7 
        921.567      9.76812e+6 
        921.667      9.27631e+6 
        921.767      8.63247e+6 
        921.867      7.83686e+6 
        921.967      6.95743e+6 
        922.067      5.93287e+6 
        922.167      4.78377e+6 
        922.267      3.49983e+6 
        922.331       2.6105e+6 
        922.368      2.29022e+6 
        922.405      2.19906e+6 
        922.479      2.61452e+6 
        922.627      4.63284e+6 
         922.67      5.15806e+6 
         922.74      5.96416e+6 
        922.775      6.34284e+6 
         922.81      6.72734e+6 
         922.95      8.09818e+6 
         923.09      9.36704e+6 
         923.23      1.04553e+7 
        923.371      1.13943e+7 
        923.511      1.21027e+7 
        923.651      1.26088e+7 
        923.791      1.29042e+7 
        923.931      1.30349e+7 
        924.071      1.29954e+7 
        924.211      1.27569e+7 
        924.352      1.23108e+7 
        924.492      1.16389e+7 
        924.632      1.07423e+7 
        924.772      9.70099e+6 
        924.912      8.48557e+6 
        925.052      7.14995e+6 
        925.192      5.58968e+6 
        925.333      3.71456e+6 
        925.434      2.32694e+6 
        925.462      2.20761e+6 
        925.473      2.19173e+6 
        925.484      2.18703e+6 
        925.534      2.32937e+6 
        925.634      3.71075e+6 
        925.734      5.09987e+6 
        925.934      7.41658e+6 
        926.134      9.37354e+6 
        926.232      1.02476e+7 
        926.301      1.08247e+7 
        926.335      1.11173e+7 
        926.369      1.14004e+7 
        926.505      1.24758e+7 
        926.641       1.3416e+7 
        926.777      1.42272e+7 
        926.913      1.49188e+7 
        927.049      1.54799e+7 
        927.185       1.5942e+7 
        927.322      1.63059e+7 
        927.458      1.65843e+7 
        927.594       1.6763e+7 
         927.73      1.68665e+7 
        927.866      1.68869e+7 
        928.002      1.68215e+7 
        928.006      1.68182e+7 
        928.094      1.66984e+7 
        928.138      1.66159e+7 
        928.182        1.652e+7 
        928.359      1.59998e+7 
        928.535      1.52572e+7 
        928.711      1.43084e+7 
        928.887      1.32552e+7 
        928.985      1.26152e+7 
        929.037      1.22533e+7 
        929.063       1.2065e+7 
        929.089      1.18709e+7 
        929.125      1.15926e+7 
        929.193      1.10423e+7 
        929.261      1.04806e+7 
        929.398       9.2688e+6 
        929.493      8.34951e+6 
        929.525      8.02916e+6 
        929.534      7.93868e+6 
        929.543       7.8472e+6 
        929.593        7.319e+6 
        929.617      7.05485e+6 
        929.655      6.62084e+6 
        929.693      6.16211e+6 
        929.769      5.18181e+6 
        929.827      4.35013e+6 
        929.883      3.46983e+6 
         929.91      3.00974e+6 
        929.939      2.55706e+6 
        929.954      2.40168e+6 
        929.968      2.30998e+6 
        929.982      2.26864e+6 
        929.996      2.25286e+6 
         930.01       2.2489e+6 
        930.024      2.25352e+6 
        930.038      2.26996e+6 
        930.052      2.31199e+6 
        930.081      2.56078e+6 
        930.137      3.47856e+6 
        930.201      4.48588e+6 
        930.247      5.14951e+6 
        930.249      5.17756e+6 
        930.251      5.20565e+6 
        930.301      5.87572e+6 
        930.326      6.17414e+6 
        930.402      7.08492e+6 
        930.478      7.91782e+6 
         930.63      9.45246e+6 
        930.633      9.48158e+6 
        930.782      1.08526e+7 
        930.931      1.21429e+7 
         931.08      1.33063e+7 
        931.229      1.43874e+7 
        931.379      1.54931e+7 
        931.516      1.64615e+7 
        931.528      1.65443e+7 
        931.677      1.75057e+7 
        931.838       1.8462e+7 
        931.999       1.9314e+7 
         932.16      1.99932e+7 
        932.321      2.06028e+7 
        932.483      2.11388e+7 
        932.644      2.16127e+7 
        932.805      2.19964e+7 
        932.966      2.22982e+7 
        933.127       2.2544e+7 
        933.173      2.26038e+7 
        933.265      2.27091e+7 
        933.288      2.27323e+7 
        933.403      2.28292e+7 
        933.432      2.28465e+7 
        933.542      2.28938e+7 
        933.652      2.29076e+7 
        933.762      2.28856e+7 
        933.872      2.28266e+7 
        933.982      2.27174e+7 
        934.092      2.25512e+7 
        934.202      2.23378e+7 
        934.312      2.20756e+7 
        934.413      2.18024e+7 
        934.422      2.17778e+7 
        934.533      2.14513e+7 
        934.652      2.10425e+7 
        934.771       2.0576e+7 
         934.89      2.00575e+7 
        935.009       1.9478e+7 
        935.026      1.93901e+7 
        935.128      1.88741e+7 
         935.23      1.83849e+7 
        935.332       1.7867e+7 
        935.434      1.73279e+7 
        935.537       1.6761e+7 
        935.639      1.61621e+7 
        935.741      1.55377e+7 
        935.843      1.48717e+7 
        935.945      1.41536e+7 
         935.95      1.41172e+7 
        936.047      1.33929e+7 
        936.144      1.26219e+7 
        936.338       1.0973e+7 
        936.464       9.8007e+6 
        936.532        9.117e+6 
        936.601      8.39782e+6 
        936.645      7.90865e+6 
        936.714      7.09805e+6 
        936.737      6.81226e+6 
        936.829      5.58625e+6 
        936.887      4.68867e+6 
        936.944      3.70431e+6 
        936.973      3.14135e+6 
        937.001      2.65007e+6 
        937.015      2.50797e+6 
        937.029      2.43323e+6 
        937.043      2.40886e+6 
        937.058      2.40219e+6 
        937.072      2.40097e+6 
        937.086      2.40288e+6 
        937.101      2.41029e+6 
        937.115      2.43536e+6 
        937.143      2.65388e+6 
         937.15      2.75394e+6 
        937.186      3.44601e+6 
        937.199      3.69568e+6 
         937.25      4.59137e+6 
        937.314      5.59678e+6 
        937.341      5.98794e+6 
        937.442      7.29208e+6 
        937.543      8.46838e+6 
        937.645      9.54959e+6 
        937.746      1.05514e+7 
        937.847      1.14876e+7 
        937.896      1.19271e+7 
        937.948      1.23858e+7 
            938      1.28333e+7 
        938.104       1.3702e+7 
        938.208      1.45243e+7 
        938.312      1.53089e+7 
        938.416      1.60455e+7 
         938.52      1.67502e+7 
        938.543       1.6904e+7 
        938.556      1.69911e+7 
        938.624      1.74403e+7 
        938.729      1.81064e+7 
        938.914      1.92661e+7 
        939.271      2.16056e+7 
        939.628      2.38633e+7 
        939.807      2.49438e+7 
        939.986      2.60582e+7 
        940.164      2.71271e+7 
        940.343      2.81073e+7 
        940.521      2.90327e+7 
         940.58      2.93267e+7 
         940.66      2.97215e+7 
          940.7      2.99156e+7 
         940.74      3.01064e+7 
        940.901      3.07977e+7 
        941.061      3.14483e+7 
        941.221      3.20606e+7 
        941.381      3.26195e+7 
        941.541      3.30926e+7 
        941.701      3.35359e+7 
        942.022      3.43301e+7 
        942.182       3.4681e+7 
        942.342       3.4987e+7 
        942.502      3.52452e+7 
        942.662       3.5462e+7 
        942.917      3.57165e+7 
        942.982      3.57626e+7 
        943.048      3.58006e+7 
        943.178      3.58569e+7 
        943.308      3.58603e+7 
        943.438       3.5816e+7 
        943.568       3.5729e+7 
        943.698      3.55974e+7 
        943.828      3.54196e+7 
        943.958      3.51959e+7 
        944.088      3.49179e+7 
        944.219      3.45776e+7 
        944.349      3.41859e+7 
        944.479      3.37426e+7 
        944.609        3.325e+7 
        944.691      3.29145e+7 
        944.739      3.27093e+7 
        944.845      3.22805e+7 
        944.999      3.16195e+7 
        945.153      3.09093e+7 
        945.308      3.01505e+7 
        945.616      2.85648e+7 
        945.924      2.68498e+7 
        946.232      2.51988e+7 
        946.541      2.35823e+7 
        947.108      2.04994e+7 
        947.157      2.02199e+7 
        947.208      1.99254e+7 
        947.308      1.93377e+7 
        947.509      1.81053e+7 
        947.709      1.67822e+7 
        947.735      1.66006e+7 
        947.909      1.53057e+7 
        948.083      1.38758e+7 
        948.257      1.23118e+7 
        948.317      1.17389e+7 
        948.431      1.05811e+7 
        948.546      9.31162e+6 
         948.66      7.90396e+6 
        948.727      6.99202e+6 
        948.761      6.50068e+6 
        948.771      6.34542e+6 
        948.774       6.2987e+6 
        948.777      6.25155e+6 
        948.827       5.4091e+6 
        948.835      5.26653e+6 
        948.893      4.13547e+6 
        948.922      3.47228e+6 
        948.951      2.88539e+6 
        948.966      2.75351e+6 
         948.98      2.71139e+6 
        948.994      2.70423e+6 
        949.009      2.70345e+6 
        949.023      2.70366e+6 
        949.037       2.7042e+6 
        949.052      2.70578e+6 
        949.066       2.7137e+6 
        949.095      2.88948e+6 
        949.153      4.14561e+6 
         949.23      5.62276e+6 
        949.258       6.1044e+6 
        949.269       6.2792e+6 
         949.28       6.4528e+6 
         949.33      7.18404e+6 
         949.36      7.60203e+6 
         949.43      8.52393e+6 
          949.5      9.38786e+6 
         949.64      1.09677e+7 
        949.781      1.23909e+7 
        949.795      1.25265e+7 
        949.879      1.33231e+7 
        949.921      1.37093e+7 
        949.963        1.409e+7 
        950.131       1.5534e+7 
        950.299       1.6858e+7 
        950.467      1.80681e+7 
        950.635      1.92104e+7 
        950.719      1.97632e+7 
        950.804      2.03043e+7 
        950.888      2.08372e+7 
        951.056      2.18862e+7 
        951.392      2.39448e+7 
         951.56      2.49701e+7 
        951.728      2.59987e+7 
        951.896      2.71174e+7 
        952.065      2.82512e+7 
        952.233      2.94467e+7 
        952.401      3.07176e+7 
        952.688       3.2894e+7 
        952.737      3.32836e+7 
        952.788      3.36917e+7 
        952.888      3.44978e+7 
        953.089      3.61343e+7 
        953.289      3.78062e+7 
        953.489      3.96576e+7 
        953.689      4.15425e+7 
        953.889      4.34498e+7 
         954.29       4.7232e+7 
         954.49      4.91113e+7 
         954.69      5.09815e+7 
         954.89      5.27649e+7 
         955.09      5.43671e+7 
         955.29      5.59367e+7 
        955.491      5.74745e+7 
        955.768      5.95454e+7 
        955.891      6.03943e+7 
        956.014      6.12212e+7 
         956.26      6.28768e+7 
        956.753      6.60627e+7 
        957.245      6.90748e+7 
        957.738      7.18869e+7 
        958.156      7.40863e+7 
         958.23       7.4457e+7 
        958.439       7.5483e+7 
        958.722      7.67871e+7 
        959.006      7.79875e+7 
        959.289      7.90764e+7 
        959.572      8.00999e+7 
        959.855      8.09918e+7 
        960.139      8.17505e+7 
         960.38      8.22736e+7 
        960.414       8.2338e+7 
        960.422      8.23528e+7 
         960.43      8.23675e+7 
         960.48      8.24945e+7 
         960.58      8.27313e+7 
         960.78       8.3136e+7 
         961.18       8.3644e+7 
        961.381      8.37489e+7 
        961.581      8.37445e+7 
        961.781      8.36327e+7 
        961.981      8.34156e+7 
        962.181      8.30892e+7 
        962.381      8.26478e+7 
        962.582      8.21008e+7 
        962.782      8.14483e+7 
        962.982       8.0666e+7 
        963.182      7.97855e+7 
        963.582      7.77293e+7 
        963.735      7.68481e+7 
        963.983      7.53084e+7 
        964.231      7.36182e+7 
        964.479      7.18253e+7 
        964.727      6.99388e+7 
        964.976      6.79357e+7 
        965.472      6.37388e+7 
        965.968      5.93425e+7 
        966.465      5.48971e+7 
        966.883      5.11863e+7 
         967.17      4.86906e+7 
        967.458      4.62581e+7 
        967.745      4.38868e+7 
        967.982      4.19921e+7 
        968.032      4.15928e+7 
        968.082      4.11932e+7 
        968.182       4.0404e+7 
        968.382      3.88543e+7 
        968.783      3.58506e+7 
        969.069      3.37498e+7 
        969.124      3.33493e+7 
        969.183      3.29211e+7 
        969.297      3.20948e+7 
        969.525      3.04327e+7 
        969.725      2.89588e+7 
        969.927      2.74612e+7 
        970.128      2.59178e+7 
        970.328      2.43125e+7 
        970.428      2.34785e+7 
        970.528      2.26163e+7 
        970.629      2.17197e+7 
        970.695      2.10955e+7 
        970.729      2.07677e+7 
        970.784      2.02223e+7 
        970.829      1.97692e+7 
        970.874      1.93047e+7 
        971.053      1.73073e+7 
        971.117      1.65222e+7 
        971.233      1.50035e+7 
        971.348      1.33018e+7 
        971.463      1.13793e+7 
        971.535      1.00334e+7 
        971.567      9.39493e+6 
        971.571      9.31287e+6 
        971.578      9.16682e+6 
        971.585      9.01964e+6 
        971.635      7.93579e+6 
        971.644      7.73061e+6 
        971.703      6.32601e+6 
        971.732      5.58437e+6 
        971.762      4.78512e+6 
        971.778       4.3403e+6 
        971.792      3.95476e+6 
        971.806      3.60683e+6 
        971.821      3.38067e+6 
        971.827      3.36509e+6 
        971.833      3.36493e+6 
        971.836      3.36502e+6 
        971.839      3.36512e+6 
        971.851      3.36584e+6 
        971.866      3.48996e+6 
         971.88      3.80246e+6 
         971.91      4.62587e+6 
        971.969      6.18941e+6 
        972.037      7.82439e+6 
        972.087      8.92768e+6 
        972.137      9.96017e+6 
         972.15      1.02162e+7 
        972.237      1.18293e+7 
        972.324       1.3283e+7 
        972.499       1.5803e+7 
        972.548      1.64339e+7 
        972.673      1.79212e+7 
        972.798      1.92578e+7 
        972.923      2.04723e+7 
        973.048      2.15808e+7 
        973.173       2.2609e+7 
        973.298       2.3571e+7 
        973.423      2.44911e+7 
        973.548      2.53725e+7 
        973.601      2.57373e+7 
        973.673       2.6224e+7 
        973.746      2.67044e+7 
         973.89      2.76487e+7 
        974.178      2.94511e+7 
        974.466      3.12308e+7 
        975.043      3.47121e+7 
        975.556       3.7772e+7 
        975.598      3.80139e+7 
        975.619      3.81355e+7 
         975.64      3.82574e+7 
        975.724      3.87493e+7 
        975.892      3.97591e+7 
        976.228      4.17631e+7 
        976.397      4.28095e+7 
        976.565      4.39022e+7 
        976.733      4.50589e+7 
        976.901      4.62929e+7 
        977.069      4.76168e+7 
        977.237      4.90553e+7 
        977.405      5.04219e+7 
        977.574      5.17766e+7 
        977.742       5.3228e+7 
         977.91      5.47925e+7 
        978.078      5.63156e+7 
        978.246       5.7859e+7 
        978.414      5.95112e+7 
        978.582      6.12931e+7 
         978.75      6.32528e+7 
        978.919      6.54111e+7 
        979.087      6.77987e+7 
        979.105      6.80701e+7 
        979.205      6.96422e+7 
        979.255        7.047e+7 
        979.305      7.13286e+7 
        979.505      7.44206e+7 
        979.705      7.79131e+7 
        979.905      8.19085e+7 
        980.105      8.54752e+7 
        980.306      8.88094e+7 
        980.506      9.24395e+7 
