# Koester WD models
# teff = 18500 K (value for the effective temperature for the model. Temperatures are given in K)
# logg = 8.75 log(cm/s2) (value for Log(G) for the model.)
#
# column 1: WAVELENGTH (ANGSTROM), Wavelength in Angstrom
# column 2: FLUX (ERG/CM2/S/A), Flux in erg/cm2/s/A
         899.23      4.30869e+6 
        904.235      4.50621e+6 
         908.45      4.67733e+6 
        909.241      4.70991e+6 
        910.032      4.74258e+6 
        911.193      4.79071e+6 
        911.613      4.80805e+6 
        911.824      4.81663e+6 
        911.929       4.8209e+6 
        912.034      4.82514e+6 
        912.139      4.87739e+6 
        912.244        4.929e+6 
        912.349      4.98005e+6 
        912.454      5.03048e+6 
        912.559      5.08036e+6 
        912.664      5.12915e+6 
         912.77      5.17697e+6 
        912.875      5.22324e+6 
        912.886      5.22799e+6 
        913.085      5.30577e+6 
        913.284      5.37024e+6 
        913.339      5.38356e+6 
        913.435       5.4058e+6 
        913.483        5.419e+6 
        913.531      5.43031e+6 
        913.625      5.44297e+6 
        913.724      5.45201e+6 
        913.822      5.46672e+6 
        913.871      5.47199e+6 
        914.018      5.45921e+6 
        914.165      5.43433e+6 
        914.312      5.46706e+6 
        914.343       5.4648e+6 
        914.459      5.37354e+6 
        914.575      5.28702e+6 
        914.692      5.38981e+6 
        914.808      5.45443e+6 
        914.924      5.26408e+6 
        915.009      5.04728e+6 
         915.04      4.99614e+6 
        915.071      4.97961e+6 
        915.133      5.06258e+6 
        915.257      5.40517e+6 
        915.381      5.49502e+6 
        915.505       5.1137e+6 
        915.609      4.65308e+6 
        915.617      4.62791e+6 
         915.63      4.58459e+6 
        915.643      4.55167e+6 
        915.677      4.52308e+6 
        915.745      4.70124e+6 
        915.881       5.4441e+6 
        916.017      5.83931e+6 
        916.153      5.61868e+6 
        916.289      4.80321e+6 
        916.379      4.20219e+6 
        916.421       4.0841e+6 
        916.425      4.08228e+6 
        916.429      4.08219e+6 
        916.479      4.22478e+6 
         916.58      4.97713e+6 
         916.68      5.76724e+6 
         916.78      6.31036e+6 
         916.88      6.54384e+6 
         916.98      6.39653e+6 
         917.08       5.9072e+6 
         917.18       5.1054e+6 
        917.182      5.08734e+6 
         917.28      4.12306e+6 
        917.378      3.57714e+6 
        917.575      5.18576e+6 
        917.771      6.88065e+6 
        917.967      7.59329e+6 
        918.163      7.05064e+6 
        918.359      5.39845e+6 
         918.51      3.73366e+6 
        918.556      3.31912e+6 
        918.602       3.1649e+6 
        918.694      3.74384e+6 
        918.878      5.87176e+6 
        919.062      7.66725e+6 
        919.201      8.60419e+6 
        919.241      8.78842e+6 
        919.246      8.80843e+6 
        919.251      8.82778e+6 
        919.301      8.98159e+6 
        919.402      9.09259e+6 
        919.502      8.98373e+6 
        919.602      8.60042e+6 
        919.702      7.95426e+6 
        919.802      7.14929e+6 
        919.902      6.14951e+6 
        920.002      5.02297e+6 
        920.102      3.75596e+6 
        920.165      3.07592e+6 
        920.189      2.93604e+6 
        920.202      2.89777e+6 
        920.215      2.88478e+6 
        920.265      3.07917e+6 
        920.366      4.26399e+6 
        920.466      5.49006e+6 
        920.566      6.62471e+6 
        920.666      7.70139e+6 
        920.766      8.65025e+6 
        920.866      9.52188e+6 
        920.966      1.02008e+7 
        921.066      1.07206e+7 
        921.166      1.10734e+7 
        921.266      1.12357e+7 
        921.367      1.12331e+7 
        921.467      1.10502e+7 
        921.567      1.06624e+7 
        921.667      1.01094e+7 
        921.767      9.39864e+6 
        921.867      8.51865e+6 
        921.967      7.57476e+6 
        922.067      6.49772e+6 
        922.167       5.2999e+6 
        922.267      4.00729e+6 
        922.331      3.14001e+6 
        922.368      2.82749e+6 
        922.405      2.73176e+6 
        922.479      3.14477e+6 
        922.627      5.14486e+6 
         922.74      6.53366e+6 
        922.775      6.93258e+6 
         922.81      7.34005e+6 
         922.88      8.07939e+6 
         923.02      9.53838e+6 
         923.16      1.08416e+7 
        923.301      1.20092e+7 
        923.441       1.2936e+7 
        923.581      1.36287e+7 
        923.721      1.40827e+7 
        923.861      1.43251e+7 
        924.001      1.43737e+7 
        924.141      1.42097e+7 
        924.282      1.38135e+7 
        924.422      1.31679e+7 
        924.562      1.22783e+7 
        924.702      1.11581e+7 
        924.842      9.91923e+6 
        924.982       8.4862e+6 
        925.122      6.95922e+6 
        925.262      5.18938e+6 
        925.322      4.35334e+6 
        925.403      3.16949e+6 
        925.484      2.68346e+6 
        925.646      4.36722e+6 
        925.808      6.56062e+6 
         925.97      8.42933e+6 
        926.132      1.01821e+7 
         926.22      1.10631e+7 
        926.295      1.17771e+7 
        926.369      1.24946e+7 
        926.517      1.38054e+7 
        926.665      1.49522e+7 
        926.813      1.59463e+7 
        926.961      1.67728e+7 
        927.109      1.74379e+7 
        927.257      1.79655e+7 
        927.406      1.83618e+7 
        927.554      1.86278e+7 
        927.702      1.87787e+7 
         927.85      1.88147e+7 
        927.998      1.87306e+7 
        928.038      1.86819e+7 
         928.11      1.85473e+7 
        928.146      1.84651e+7 
        928.182      1.83727e+7 
        928.327      1.78947e+7 
        928.471      1.72702e+7 
        928.615      1.64678e+7 
        928.717      1.57948e+7 
        928.759      1.54895e+7 
        928.903      1.44917e+7 
        928.917       1.4387e+7 
        929.089      1.30152e+7 
        929.261      1.14268e+7 
        929.325      1.08167e+7 
        929.434      9.68842e+6 
        929.543      8.50203e+6 
        929.652      7.22858e+6 
        929.719      6.37781e+6 
        929.753      5.92043e+6 
        929.755       5.8924e+6 
        929.761      5.80683e+6 
        929.769      5.69231e+6 
        929.819      4.95401e+6 
        929.827      4.83117e+6 
        929.883      3.93814e+6 
         929.91      3.48472e+6 
        929.939       3.0476e+6 
        929.954      2.90359e+6 
        929.968      2.80827e+6 
        929.982      2.76464e+6 
        929.996      2.74557e+6 
         930.01      2.74029e+6 
        930.024      2.74635e+6 
        930.038      2.76622e+6 
        930.052      2.81067e+6 
        930.081      3.05196e+6 
        930.137      3.94795e+6 
        930.201      4.97214e+6 
        930.247      5.65992e+6 
        930.249      5.68914e+6 
        930.251       5.7183e+6 
        930.301      6.41278e+6 
        930.326      6.72345e+6 
        930.402      7.68754e+6 
        930.478      8.57828e+6 
         930.63       1.0274e+7 
        930.633      1.03067e+7 
        930.782      1.18419e+7 
        930.931      1.33152e+7 
         931.08      1.46484e+7 
        931.229      1.59026e+7 
        931.379      1.71815e+7 
        931.516      1.82819e+7 
        931.528      1.83749e+7 
        931.677      1.94584e+7 
        931.838      2.05444e+7 
        931.999      2.15117e+7 
         932.16      2.22994e+7 
        932.321      2.30054e+7 
        932.483      2.36248e+7 
        932.644      2.41691e+7 
        932.805      2.46067e+7 
        932.966      2.49481e+7 
        933.127      2.52269e+7 
        933.173      2.52947e+7 
        933.265       2.5414e+7 
        933.288      2.54403e+7 
        933.403      2.55501e+7 
        933.432      2.55694e+7 
        933.542      2.56206e+7 
        933.652      2.56332e+7 
        933.762      2.56037e+7 
        933.872      2.55316e+7 
        933.982       2.5405e+7 
        934.092      2.52172e+7 
        934.202      2.49763e+7 
        934.312      2.46798e+7 
        934.413      2.43717e+7 
        934.422      2.43441e+7 
        934.533      2.39786e+7 
        934.652      2.35223e+7 
        934.771      2.30019e+7 
         934.89      2.24315e+7 
        935.009       2.1789e+7 
        935.026      2.16915e+7 
        935.128      2.11103e+7 
         935.23      2.05422e+7 
        935.332      1.99381e+7 
        935.434      1.93103e+7 
        935.537      1.86529e+7 
        935.639      1.79594e+7 
        935.741      1.72306e+7 
        935.843      1.64563e+7 
        935.945      1.56274e+7 
         935.95      1.55855e+7 
        936.047      1.47508e+7 
        936.144      1.38676e+7 
        936.338      1.19771e+7 
        936.464      1.06556e+7 
        936.532       9.8963e+6 
        936.601       9.1027e+6 
        936.645      8.57363e+6 
        936.714      7.70548e+6 
        936.737      7.40363e+6 
        936.829      6.12529e+6 
        936.887      5.19104e+6 
        936.944      4.18595e+6 
        936.973      3.63661e+6 
        937.001      3.16044e+6 
        937.015      3.02844e+6 
        937.029      2.95094e+6 
        937.043      2.92441e+6 
        937.058      2.91577e+6 
        937.072       2.9143e+6 
        937.086      2.91659e+6 
        937.101       2.9261e+6 
        937.115      2.95348e+6 
        937.143       3.1649e+6 
         937.15      3.26763e+6 
        937.186      3.93186e+6 
        937.199      4.17832e+6 
         937.25      5.09098e+6 
        937.314       6.1376e+6 
        937.341      6.53919e+6 
        937.442      7.91392e+6 
        937.543       9.1786e+6 
        937.645      1.03722e+7 
        937.746      1.14962e+7 
        937.847      1.25548e+7 
        937.896      1.30611e+7 
        937.948      1.35889e+7 
            938      1.41007e+7 
        938.104      1.50957e+7 
        938.208      1.60426e+7 
        938.312      1.69482e+7 
        938.416      1.78047e+7 
         938.52      1.86252e+7 
        938.543      1.88034e+7 
        938.556      1.89038e+7 
        938.624      1.94226e+7 
        938.729      2.01939e+7 
        938.914      2.15407e+7 
        939.093      2.28286e+7 
        939.271      2.41681e+7 
        939.449      2.54355e+7 
        939.628      2.66632e+7 
        939.807      2.78588e+7 
        939.986      2.90845e+7 
        940.164      3.02501e+7 
        940.343      3.13264e+7 
        940.521      3.23402e+7 
         940.58      3.26613e+7 
         940.66      3.30907e+7 
          940.7      3.33012e+7 
         940.74      3.35073e+7 
        940.901      3.42346e+7 
        941.061      3.49179e+7 
        941.221      3.55572e+7 
        941.381      3.61399e+7 
        941.541      3.66404e+7 
        941.701      3.71088e+7 
        942.022      3.79467e+7 
        942.342        3.864e+7 
        942.662      3.91534e+7 
        942.917      3.94392e+7 
        942.982      3.94936e+7 
        943.048      3.95401e+7 
        943.178      3.96105e+7 
        943.438      3.95856e+7 
        943.698      3.93752e+7 
        943.828      3.91992e+7 
        943.958      3.89743e+7 
        944.088      3.86919e+7 
        944.219      3.83463e+7 
        944.349       3.7946e+7 
        944.479      3.74905e+7 
        944.609      3.69816e+7 
        944.691      3.66325e+7 
        944.739      3.64183e+7 
        944.845      3.59643e+7 
        944.999      3.52616e+7 
        945.153      3.45019e+7 
        945.308      3.36889e+7 
        945.616      3.20059e+7 
        945.924      3.01641e+7 
        946.232      2.83136e+7 
         946.54      2.64853e+7 
        946.849      2.46075e+7 
        947.004      2.36277e+7 
        947.158      2.26166e+7 
        947.312      2.15628e+7 
        947.468      2.04572e+7 
        947.471      2.04352e+7 
        947.622       1.9291e+7 
        947.624      1.92794e+7 
        947.777      1.80485e+7 
         947.93      1.67034e+7 
        948.033      1.57361e+7 
        948.083      1.52466e+7 
        948.133      1.47471e+7 
        948.233      1.37021e+7 
        948.333      1.26266e+7 
        948.433      1.14767e+7 
        948.495      1.07281e+7 
        948.521      1.04043e+7 
        948.534      1.02517e+7 
        948.546      1.00982e+7 
        948.596      9.44944e+6 
        948.615       9.1977e+6 
        948.661      8.56816e+6 
        948.696       8.0722e+6 
        948.777      6.84927e+6 
        948.835      5.82143e+6 
        948.893      4.66084e+6 
        948.922      4.01785e+6 
        948.951      3.44972e+6 
        948.966      3.32525e+6 
         948.98      3.28051e+6 
        948.994      3.27238e+6 
        949.009      3.27121e+6 
        949.023      3.27143e+6 
        949.037      3.27209e+6 
        949.052      3.27423e+6 
        949.066      3.28328e+6 
        949.095      3.45453e+6 
        949.153      4.67211e+6 
         949.23      6.19198e+6 
        949.258      6.69904e+6 
        949.269      6.87927e+6 
         949.28      7.05784e+6 
         949.33      7.82436e+6 
         949.36      8.26405e+6 
         949.43      9.24863e+6 
          949.5      1.01801e+7 
         949.64      1.19275e+7 
        949.781      1.35314e+7 
        949.795      1.36845e+7 
        949.879      1.45998e+7 
        949.921      1.50441e+7 
        949.963      1.54792e+7 
        950.131      1.71412e+7 
        950.299      1.86717e+7 
        950.467      2.00833e+7 
        950.635      2.14171e+7 
        950.719      2.20623e+7 
        950.804      2.26938e+7 
        950.888      2.33152e+7 
        951.056      2.45288e+7 
        951.392      2.68887e+7 
         951.56      2.80586e+7 
        951.728        2.923e+7 
        951.896      3.04974e+7 
        952.065        3.177e+7 
        952.233      3.30857e+7 
        952.401      3.44504e+7 
        952.688      3.67711e+7 
        952.737      3.71917e+7 
        952.788      3.76319e+7 
        952.888      3.84996e+7 
        953.089      4.02554e+7 
        953.289      4.20405e+7 
        953.489      4.39719e+7 
        953.889      4.78706e+7 
         954.29      5.16723e+7 
         954.49      5.35249e+7 
         954.69      5.53514e+7 
         954.89      5.70761e+7 
         955.09      5.86039e+7 
         955.29      6.00993e+7 
        955.491      6.15608e+7 
        955.768      6.35252e+7 
        955.891      6.43414e+7 
        956.014      6.51375e+7 
         956.26      6.67218e+7 
        956.753      6.97594e+7 
        957.245      7.26154e+7 
        957.738      7.52716e+7 
        958.156       7.7352e+7 
         958.23      7.77026e+7 
        958.722      7.99077e+7 
        959.289      8.20816e+7 
        959.572      8.30518e+7 
        959.855      8.39028e+7 
        960.139      8.46342e+7 
         960.38      8.51485e+7 
        960.414      8.52132e+7 
        960.422       8.5228e+7 
         960.43      8.52427e+7 
         960.48      8.53602e+7 
         960.58      8.55808e+7 
         960.78      8.59618e+7 
         961.18      8.64635e+7 
        961.581      8.66118e+7 
        961.981      8.63878e+7 
        962.381      8.57762e+7 
        962.582      8.53253e+7 
        962.782       8.4779e+7 
        962.982      8.41133e+7 
        963.182      8.33571e+7 
        963.582      8.15674e+7 
        963.735      8.07908e+7 
        963.983      7.94235e+7 
        964.231      7.79058e+7 
        964.479       7.6281e+7 
        964.727      7.45541e+7 
        964.976      7.27053e+7 
        965.224      7.07795e+7 
        965.472      6.87619e+7 
        965.968      6.45437e+7 
        966.465      6.01775e+7 
        966.961      5.57526e+7 
        967.876      4.77689e+7 
        967.954      4.71088e+7 
        968.032       4.6445e+7 
        968.188      4.51167e+7 
          968.5      4.25211e+7 
        968.953       3.8837e+7 
        969.125      3.74481e+7 
        969.297      3.60576e+7 
        969.356      3.55763e+7 
        969.641      3.32286e+7 
        969.927      3.08179e+7 
        970.069      2.95666e+7 
        970.212      2.82759e+7 
        970.354      2.69369e+7 
        970.497      2.55326e+7 
        970.639       2.4052e+7 
         970.69      2.34929e+7 
        970.782      2.24436e+7 
        970.874      2.13476e+7 
        971.058      1.89612e+7 
        971.137      1.78388e+7 
        971.243      1.62272e+7 
        971.348      1.44653e+7 
        971.453      1.25302e+7 
        971.531       1.0966e+7 
        971.558      1.03917e+7 
        971.575      1.00248e+7 
        971.585       9.8051e+6 
        971.639      8.57218e+6 
        971.644      8.45371e+6 
        971.703      6.99394e+6 
        971.732      6.22931e+6 
        971.762      5.40586e+6 
        971.778      4.95156e+6 
        971.792      4.56891e+6 
        971.806      4.23911e+6 
        971.821      4.06026e+6 
        971.827      4.05306e+6 
        971.833      4.05322e+6 
        971.836      4.05335e+6 
        971.839      4.05344e+6 
        971.851      4.05397e+6 
        971.866      4.14015e+6 
         971.88      4.41959e+6 
         971.91      5.24121e+6 
        971.969      6.85285e+6 
        972.037      8.55255e+6 
        972.087      9.70988e+6 
        972.137      1.08038e+7 
         972.15      1.10786e+7 
        972.237      1.28296e+7 
        972.324      1.44392e+7 
        972.499      1.72935e+7 
        972.548       1.8017e+7 
        972.673      1.97253e+7 
        972.798      2.12732e+7 
        972.923      2.26817e+7 
        973.048      2.39773e+7 
        973.173      2.51752e+7 
        973.298      2.62955e+7 
        973.423      2.73663e+7 
        973.548      2.83872e+7 
        973.601      2.88077e+7 
        973.673      2.93704e+7 
        973.746      2.99219e+7 
         973.89      3.10054e+7 
        974.178      3.30574e+7 
        974.466       3.5068e+7 
        975.043       3.8963e+7 
        975.556      4.23377e+7 
        975.598      4.26038e+7 
        975.619       4.2737e+7 
         975.64      4.28708e+7 
        975.724      4.34099e+7 
        975.892      4.45123e+7 
        976.228      4.66963e+7 
        976.397      4.78292e+7 
        976.565      4.90123e+7 
        976.733      5.02595e+7 
        976.901      5.15853e+7 
        977.069      5.30024e+7 
        977.237      5.45349e+7 
        977.574      5.74151e+7 
         977.91      6.05787e+7 
        978.078      6.21652e+7 
        978.246      6.37646e+7 
        978.414      6.54717e+7 
        978.582      6.73027e+7 
         978.75       6.9302e+7 
        978.919      7.14945e+7 
        979.087      7.39047e+7 
        979.105      7.41774e+7 
        979.205      7.57517e+7 
        979.255      7.65788e+7 
        979.305      7.74346e+7 
        979.505      8.05077e+7 
        979.705      8.39484e+7 
        979.905      8.78487e+7 
        980.105      9.13054e+7 
        980.306      9.45161e+7 
        980.506      9.79841e+7 
        980.706      1.01486e+8 
        980.906      1.04394e+8 
        981.106      1.07426e+8 
        981.506      1.13617e+8 
        982.307      1.26089e+8 
        982.707      1.32338e+8 
        983.108      1.38781e+8 
        983.508      1.45623e+8 
        983.863      1.52181e+8 
        983.893      1.52754e+8 
        983.908      1.53042e+8 
        983.923       1.5333e+8 
        983.983      1.54537e+8 
        984.103      1.56844e+8 
        984.344      1.61313e+8 
        984.824      1.70438e+8 
        984.951      1.72718e+8 
        985.785      1.88313e+8 
        986.202      1.96378e+8 
