# Koester WD models
# teff = 18750 K (value for the effective temperature for the model. Temperatures are given in K)
# logg = 8 log(cm/s2) (value for Log(G) for the model.)
#
# column 1: WAVELENGTH (ANGSTROM), Wavelength in Angstrom
# column 2: FLUX (ERG/CM2/S/A), Flux in erg/cm2/s/A
         899.23      4.98316e+6 
        900.429      5.03626e+6 
        901.419      5.08036e+6 
        902.827      5.14357e+6 
        904.235      5.20735e+6 
        904.863      5.23594e+6 
        907.051      5.33643e+6 
         908.45      5.40134e+6 
        909.241      5.43825e+6 
        910.032      5.47529e+6 
        911.193       5.5303e+6 
        911.613      5.55009e+6 
        911.824      5.55993e+6 
        911.929       5.5648e+6 
        912.034       5.5696e+6 
        912.139      5.67478e+6 
        912.244      5.77924e+6 
        912.349      5.88291e+6 
        912.454      5.98561e+6 
        912.559      6.08743e+6 
        912.664      6.18693e+6 
         912.77      6.28425e+6 
        912.875      6.37781e+6 
        912.886      6.38727e+6 
         912.98      6.46263e+6 
        913.085       6.5232e+6 
        913.284      6.54887e+6 
        913.433      6.56238e+6 
        913.483      6.54585e+6 
        913.533      6.54928e+6 
        913.633      6.60777e+6 
        913.645       6.6074e+6 
        913.734      6.53687e+6 
        913.822      6.45302e+6 
        913.831      6.45745e+6 
        913.998      6.61607e+6 
        914.165      6.17062e+6 
        914.332      6.67965e+6 
        914.423      6.50872e+6 
        914.499      6.00179e+6 
        914.575      5.69706e+6 
        914.728      6.60705e+6 
         914.88      6.60891e+6 
        914.982      5.68503e+6 
        915.032      5.21878e+6 
        915.082      5.09598e+6 
        915.182      5.97691e+6 
        915.282      6.91263e+6 
        915.382      7.11718e+6 
        915.482      6.53363e+6 
        915.522      6.08831e+6 
        915.583      5.29666e+6 
        915.593      5.15165e+6 
        915.643      4.58792e+6 
        915.693      4.49144e+6 
        915.793      5.66351e+6 
        915.893      6.99922e+6 
        915.993      7.72634e+6 
        916.093      7.73627e+6 
        916.193      7.01159e+6 
        916.293      5.64818e+6 
        916.343      4.81217e+6 
        916.393      4.12186e+6 
        916.443      3.97314e+6 
        916.544      5.31407e+6 
        916.644      6.98621e+6 
        916.744      8.20804e+6 
        916.844       8.8668e+6 
        916.944      8.90365e+6 
        917.044      8.28724e+6 
        917.144      7.08115e+6 
        917.244      5.41491e+6 
        917.294      4.45588e+6 
        917.344      3.70152e+6 
        917.394      3.57237e+6 
        917.495      5.08046e+6 
        917.595      6.95165e+6 
        917.695      8.49421e+6 
        917.795      9.66816e+6 
        917.895       1.0392e+7 
        917.995      1.06126e+7 
        918.095      1.03279e+7 
        918.195      9.49163e+6 
        918.295      8.26613e+6 
        918.395      6.67218e+6 
        918.496      4.65292e+6 
        918.546      3.70158e+6 
        918.596       3.2464e+6 
        918.646       3.5259e+6 
        918.746      5.49763e+6 
        918.846      7.38789e+6 
        918.946      9.01461e+6 
        919.046      1.04795e+7 
        919.146      1.16203e+7 
        919.196      1.20459e+7 
        919.246      1.23846e+7 
        919.296      1.26225e+7 
        919.397      1.28155e+7 
        919.497      1.26907e+7 
        919.597      1.21851e+7 
        919.697      1.13193e+7 
        919.797      1.01162e+7 
        919.897      8.64381e+6 
        919.997       6.9236e+6 
        920.097        4.823e+6 
        920.147      3.72703e+6 
        920.197      3.09665e+6 
        920.247      3.19044e+6 
        920.347      5.16993e+6 
        920.448       7.2048e+6 
        920.548      8.97116e+6 
        920.648      1.05593e+7 
        920.748      1.19517e+7 
        920.848      1.31422e+7 
        920.948      1.40929e+7 
        921.048      1.47871e+7 
        921.148       1.5269e+7 
        921.248      1.55083e+7 
        921.349      1.55507e+7 
        921.449      1.53735e+7 
        921.549      1.49589e+7 
        921.649      1.43088e+7 
        921.749      1.34214e+7 
        921.849      1.23015e+7 
        921.949      1.10087e+7 
        922.049      9.45978e+6 
        922.149      7.72078e+6 
        922.249      5.71003e+6 
        922.294      4.58974e+6 
         922.35      3.36509e+6 
        922.405      2.96469e+6 
        922.515      4.59967e+6 
        922.625      7.09447e+6 
         922.66      7.76332e+6 
        922.735      9.12765e+6 
         922.81      1.03873e+7 
         922.96      1.25985e+7 
         923.11      1.45327e+7 
         923.26       1.6135e+7 
        923.411      1.74285e+7 
        923.561       1.8373e+7 
        923.711      1.89943e+7 
        923.861      1.93283e+7 
        924.011      1.93992e+7 
        924.161        1.917e+7 
        924.312      1.86167e+7 
        924.462      1.77009e+7 
        924.612      1.64232e+7 
        924.762      1.48933e+7 
        924.912      1.30386e+7 
        925.062      1.08973e+7 
        925.212      8.26691e+6 
        925.241      7.67218e+6 
        925.363      4.92928e+6 
        925.484      2.95541e+6 
        925.605      4.94078e+6 
        925.726      7.70714e+6 
        925.847      1.00031e+7 
        925.968      1.19705e+7 
        926.089      1.36986e+7 
         926.21       1.5286e+7 
        926.282      1.61275e+7 
        926.332      1.67218e+7 
        926.382      1.72884e+7 
        926.482      1.83994e+7 
        926.682      2.03159e+7 
        926.882      2.18483e+7 
        927.082      2.29993e+7 
        927.283      2.38555e+7 
        927.483      2.44481e+7 
        927.683      2.47625e+7 
        927.883      2.48312e+7 
        927.984      2.47668e+7 
        928.083      2.45982e+7 
        928.182       2.4313e+7 
        928.381      2.34436e+7 
        928.579      2.21651e+7 
        928.777      2.05922e+7 
        928.861       1.9915e+7 
        928.975      1.89073e+7 
        929.089      1.77962e+7 
        929.145      1.71975e+7 
        929.203      1.65444e+7 
        929.261      1.58767e+7 
        929.378      1.44273e+7 
        929.444      1.35275e+7 
        929.494      1.28204e+7 
        929.544      1.20745e+7 
        929.644      1.04283e+7 
        929.694       9.5086e+6 
        929.705      9.29877e+6 
        929.744       8.5331e+6 
        929.794      7.44432e+6 
        929.827      6.68214e+6 
        929.883      5.25419e+6 
        929.889      5.08338e+6 
        929.939      3.64444e+6 
        929.989       3.0534e+6 
        930.039      3.07845e+6 
        930.089      3.84006e+6 
        930.139      5.32013e+6 
        930.189      6.60784e+6 
        930.239      7.76291e+6 
        930.289      8.83903e+6 
        930.301      9.07625e+6 
         930.39      1.07274e+7 
        930.478      1.21925e+7 
        930.654      1.47541e+7 
        930.729      1.57449e+7 
         930.83       1.6989e+7 
        930.931      1.81792e+7 
        931.032      1.92807e+7 
        931.133      2.03248e+7 
        931.234      2.13203e+7 
        931.335      2.23742e+7 
        931.437      2.34175e+7 
         931.44      2.34477e+7 
        931.639      2.54286e+7 
        931.838      2.72107e+7 
        932.037      2.87421e+7 
        932.236      2.99549e+7 
        932.436      3.10136e+7 
        932.635      3.19327e+7 
        932.834      3.26625e+7 
        933.033      3.32195e+7 
        933.061      3.32871e+7 
        933.232      3.36417e+7 
        933.265       3.3698e+7 
        933.403       3.3888e+7 
        933.432      3.39163e+7 
        933.542      3.39939e+7 
        933.652      3.40187e+7 
        933.762      3.39883e+7 
        933.872      3.38997e+7 
        933.982      3.37266e+7 
        934.092      3.34561e+7 
        934.202      3.31089e+7 
        934.312      3.26854e+7 
        934.413      3.22437e+7 
        934.422      3.22038e+7 
        934.533      3.16729e+7 
        934.652       3.1013e+7 
        934.771       3.0267e+7 
         934.89      2.94472e+7 
        935.009      2.85471e+7 
        935.026      2.84122e+7 
        935.128      2.76339e+7 
         935.23      2.69174e+7 
        935.332      2.61662e+7 
        935.434      2.53871e+7 
        935.537       2.4571e+7 
        935.639      2.37164e+7 
        935.741      2.28348e+7 
        935.746      2.27905e+7 
        935.843      2.19056e+7 
        935.945      2.09111e+7 
        936.144      1.88055e+7 
        936.343      1.64873e+7 
        936.484      1.46262e+7 
        936.542      1.37808e+7 
        936.601      1.28781e+7 
        936.605      1.28138e+7 
        936.717        1.087e+7 
        936.829      8.58842e+6 
        936.891       7.0847e+6 
        936.941      5.68594e+6 
        936.991       4.0083e+6 
        937.041      3.24985e+6 
        937.091      3.23565e+6 
        937.141      3.69703e+6 
        937.168      4.53426e+6 
        937.191      5.32236e+6 
        937.241      6.79332e+6 
        937.314      8.60209e+6 
        937.377      9.95414e+6 
         937.46      1.15484e+7 
        937.543      1.29806e+7 
         937.71      1.54771e+7 
        937.752      1.60472e+7 
        937.876      1.76207e+7 
            938      1.91009e+7 
        938.124       2.0512e+7 
        938.248       2.1847e+7 
        938.372      2.31069e+7 
        938.496      2.43035e+7 
         938.62       2.5478e+7 
        938.819      2.72943e+7 
        938.869      2.77499e+7 
        938.919      2.82031e+7 
        939.019      2.91071e+7 
        939.167      3.06368e+7 
        939.219      3.11905e+7 
        939.259      3.16129e+7 
        939.271      3.17395e+7 
        939.375      3.28243e+7 
        939.583      3.49622e+7 
        939.629      3.54249e+7 
            940      3.92366e+7 
        940.185      4.11373e+7 
         940.37       4.2879e+7 
        940.555      4.45594e+7 
         940.69      4.57542e+7 
         940.74      4.61864e+7 
         940.79      4.65923e+7 
        940.891      4.73887e+7 
        941.091      4.89143e+7 
        941.291      5.03396e+7 
        941.491      5.15388e+7 
        941.691      5.26072e+7 
        941.891      5.35861e+7 
        942.092      5.44724e+7 
        942.292      5.52537e+7 
        942.337      5.54042e+7 
        942.492      5.58745e+7 
        942.515      5.59364e+7 
        942.692      5.63643e+7 
         942.87      5.66797e+7 
        943.048       5.6876e+7 
        943.225       5.6958e+7 
        943.403       5.6849e+7 
         943.58       5.6581e+7 
        943.758      5.61478e+7 
        943.935      5.55471e+7 
        944.114      5.47507e+7 
        944.291      5.37363e+7 
        944.469      5.25472e+7 
        944.646      5.11929e+7 
        944.824       4.9766e+7 
        945.051      4.79024e+7 
        945.179       4.6778e+7 
        945.308      4.56112e+7 
        945.564       4.3223e+7 
         945.82      4.07062e+7 
        946.076       3.8378e+7 
        946.333      3.61362e+7 
        946.589      3.40558e+7 
        946.845      3.19629e+7 
        947.044      3.03232e+7 
        947.101      2.98535e+7 
        947.158      2.93814e+7 
        947.272       2.8427e+7 
        947.386      2.74514e+7 
        947.501      2.64498e+7 
        947.615      2.54158e+7 
        947.729      2.43395e+7 
        947.831      2.33215e+7 
        947.843      2.31973e+7 
        947.957      2.19845e+7 
        948.083      2.05568e+7 
        948.209      1.90344e+7 
        948.335      1.73923e+7 
        948.377      1.68044e+7 
        948.461      1.55547e+7 
        948.546       1.4183e+7 
        948.651      1.22636e+7 
        948.661      1.20667e+7 
        948.714      1.09749e+7 
        948.777      9.55154e+6 
        948.835      8.02746e+6 
        948.893      6.21087e+6 
        948.901      5.92611e+6 
        948.951      4.00468e+6 
        949.001      3.62028e+6 
        949.049      3.62323e+6 
        949.051      3.62414e+6 
        949.101      4.16088e+6 
        949.153      6.22538e+6 
        949.207      7.94003e+6 
        949.257      9.29129e+6 
        949.307      1.04878e+7 
        949.314      1.06412e+7 
        949.407      1.25746e+7 
          949.5      1.42931e+7 
        949.687       1.7239e+7 
        949.783      1.85703e+7 
        949.873      1.97403e+7 
        949.963      2.08579e+7 
        950.143      2.29581e+7 
        950.323      2.48848e+7 
        950.503      2.66657e+7 
        950.683      2.83663e+7 
        950.814       2.9561e+7 
        950.864       3.0016e+7 
        950.914      3.04692e+7 
        951.014      3.13743e+7 
        951.214      3.31982e+7 
        951.414      3.50401e+7 
        951.614      3.69197e+7 
        951.814      3.89083e+7 
        952.015      4.10565e+7 
        952.092      4.19088e+7 
        952.215      4.33753e+7 
        952.254      4.38758e+7 
        952.415      4.60017e+7 
        952.577      4.81741e+7 
        952.738      5.04229e+7 
        952.899      5.27907e+7 
        953.061      5.52452e+7 
        953.223      5.77855e+7 
        953.385      6.05746e+7 
        953.546      6.35843e+7 
        953.708      6.67026e+7 
        953.869      6.99133e+7 
        954.031      7.32019e+7 
        954.355      7.98464e+7 
        954.678      8.67387e+7 
        955.001      9.33543e+7 
        955.281      9.87594e+7 
        955.324      9.95847e+7 
        955.648      1.05719e+8 
        956.014      1.12173e+8 
         956.38      1.18371e+8 
        956.747      1.24431e+8 
        957.113      1.30305e+8 
        957.479      1.35964e+8 
        957.846      1.41342e+8 
        958.212      1.46397e+8 
        958.578      1.51124e+8 
          958.6      1.51395e+8 
        958.945      1.55413e+8 
        959.289      1.58974e+8 
        959.633      1.62229e+8 
        959.977      1.64938e+8 
        960.214      1.66455e+8 
        960.322      1.67041e+8 
         960.43      1.67561e+8 
        960.646      1.68773e+8 
        960.862      1.69678e+8 
        961.078       1.7025e+8 
        961.294      1.70497e+8 
        961.511      1.70401e+8 
        961.727      1.69935e+8 
        961.943      1.69123e+8 
        962.159      1.67956e+8 
        962.375      1.66404e+8 
        962.592      1.64521e+8 
        962.808      1.62285e+8 
        963.024      1.59648e+8 
         963.24       1.5671e+8 
        963.456       1.5348e+8 
        963.672      1.49949e+8 
        963.889      1.46185e+8 
        963.979       1.4455e+8 
        964.105      1.42183e+8 
        964.231      1.39704e+8 
        964.483      1.34683e+8 
        964.735       1.2947e+8 
        964.988      1.24034e+8 
        965.492      1.12934e+8 
        965.996      1.01828e+8 
        966.249      9.64039e+7 
        966.501       9.1169e+7 
        966.753      8.61123e+7 
        967.005      8.12139e+7 
        967.257      7.65898e+7 
         967.51       7.2185e+7 
        967.762      6.80227e+7 
        967.964      6.48695e+7 
        968.014      6.41045e+7 
        968.064      6.33383e+7 
        968.164      6.18372e+7 
        968.364      5.89476e+7 
        968.564      5.61949e+7 
        968.765      5.35491e+7 
        968.965      5.10006e+7 
        969.033      5.01543e+7 
        969.165      4.85376e+7 
        969.196      4.81622e+7 
        969.297      4.69511e+7 
        969.561      4.38331e+7 
        969.709      4.21168e+7 
        969.927      3.96221e+7 
        970.001       3.8772e+7 
        970.292      3.54004e+7 
        970.437      3.36754e+7 
        970.583      3.18931e+7 
        970.728      3.00048e+7 
        970.874      2.80001e+7 
        970.983      2.63946e+7 
         971.02      2.58313e+7 
        971.166      2.34149e+7 
        971.348      1.98535e+7 
        971.475      1.68184e+7 
         971.53       1.5302e+7 
        971.585      1.36459e+7 
        971.645      1.16577e+7 
        971.695       9.8477e+6 
        971.745       7.8652e+6 
        971.795      5.64978e+6 
        971.845      4.47372e+6 
        971.895      6.21112e+6 
        971.903      6.57369e+6 
        971.945      8.37436e+6 
        971.995      1.03226e+7 
        972.087      1.35044e+7 
        972.218       1.7292e+7 
        972.271       1.8613e+7 
        972.324      1.98301e+7 
        972.431      2.20227e+7 
        972.537      2.39512e+7 
        972.643      2.56821e+7 
        972.699      2.65336e+7 
        972.749      2.72622e+7 
        972.799      2.79649e+7 
        972.899      2.92979e+7 
        972.999      3.05474e+7 
        973.099      3.17291e+7 
        973.199      3.28538e+7 
        973.399      3.49804e+7 
        973.453      3.55358e+7 
        973.599      3.70039e+7 
        973.603      3.70438e+7 
        973.746      3.84383e+7 
        974.038      4.12491e+7 
        974.622      4.68946e+7 
        975.131      5.18617e+7 
         975.64      5.69514e+7 
        975.894      5.96051e+7 
        976.149      6.23066e+7 
        976.404      6.51679e+7 
        976.531      6.66944e+7 
        976.658      6.83023e+7 
        976.786      7.00057e+7 
        976.913      7.18143e+7 
         977.04      7.37483e+7 
        977.167      7.58311e+7 
        977.294      7.80786e+7 
        977.422      8.00396e+7 
        977.549      8.21181e+7 
        977.677      8.43326e+7 
        977.804      8.66985e+7 
        977.931      8.92388e+7 
        978.058      9.16701e+7 
        978.186      9.41441e+7 
        978.313      9.67771e+7 
         978.44      9.95869e+7 
        978.567      1.02605e+8 
        978.694      1.05882e+8 
        978.822      1.09464e+8 
         978.95      1.13368e+8 
        979.077      1.17652e+8 
        979.103       1.1859e+8 
        979.204      1.22382e+8 
        979.305      1.26498e+8 
        979.406      1.30203e+8 
        979.507      1.34172e+8 
        979.608      1.38442e+8 
        979.709      1.43046e+8 
        979.809      1.48025e+8 
         979.91      1.53428e+8 
        980.011      1.58595e+8 
        980.112      1.62772e+8 
        980.214      1.67152e+8 
        980.315      1.71749e+8 
        980.416      1.76584e+8 
        980.517      1.81678e+8 
        980.618      1.87051e+8 
        980.719      1.91747e+8 
        980.819      1.95991e+8 
         980.92      2.00361e+8 
        981.021      2.04854e+8 
        981.122      2.09481e+8 
        981.324      2.19168e+8 
        981.729      2.38207e+8 
        982.132      2.58368e+8 
        982.536      2.78317e+8 
        982.764       2.9013e+8 
         982.94      2.99395e+8 
        983.054      3.05548e+8 
        983.344      3.21693e+8 
        983.633       3.3932e+8 
        983.923       3.5801e+8 
        984.503      3.95483e+8 
        984.705       4.0906e+8 
        985.183      4.38978e+8 
        985.662      4.70488e+8 
         986.14      5.03421e+8 
        986.379      5.19491e+8 
        986.499      5.27624e+8 
        986.618      5.35824e+8 
        986.737      5.43844e+8 
        986.857      5.49066e+8 
        986.977      5.53567e+8 
        987.097      5.57981e+8 
        987.216      5.62314e+8 
        987.336       5.6658e+8 
        987.455      5.70834e+8 
        987.575      5.74707e+8 
        987.814      5.82172e+8 
        988.053      5.89325e+8 
        988.293      6.00676e+8 
        988.532      6.14027e+8 
        988.651      6.20706e+8 
        988.771      6.27389e+8 
         988.89      6.32566e+8 
         989.01      6.36895e+8 
        989.129      6.41158e+8 
