# Koester WD models
# teff = 18000 K (value for the effective temperature for the model. Temperatures are given in K)
# logg = 9 log(cm/s2) (value for Log(G) for the model.)
#
# column 1: WAVELENGTH (ANGSTROM), Wavelength in Angstrom
# column 2: FLUX (ERG/CM2/S/A), Flux in erg/cm2/s/A
         899.23      3.04226e+6 
        904.235      3.18774e+6 
         908.45      3.31397e+6 
        909.241      3.33801e+6 
        910.032      3.36213e+6 
        911.193      3.39766e+6 
        911.613      3.41048e+6 
        911.824      3.41683e+6 
        911.929      3.41997e+6 
        912.034      3.42311e+6 
        912.139      3.45607e+6 
        912.244      3.48871e+6 
        912.349      3.52103e+6 
        912.454      3.55355e+6 
        912.559      3.58588e+6 
        912.664      3.61776e+6 
         912.77      3.64899e+6 
        912.875      3.67896e+6 
        912.886      3.68204e+6 
        913.037      3.72166e+6 
        913.085      3.73337e+6 
        913.284      3.77802e+6 
        913.531      3.82178e+6 
        913.649      3.83164e+6 
        913.736      3.84292e+6 
        913.779      3.84839e+6 
        913.822      3.85348e+6 
        913.994      3.84594e+6 
        914.097       3.8443e+6 
        914.165      3.84619e+6 
        914.216      3.84917e+6 
        914.336        3.846e+6 
        914.455      3.80284e+6 
        914.575      3.76649e+6 
        914.696      3.81003e+6 
        914.815      3.82605e+6 
        914.935      3.70344e+6 
        915.021      3.59665e+6 
        915.037      3.58493e+6 
        915.054      3.57699e+6 
        915.071      3.57526e+6 
        915.121      3.60394e+6 
        915.221      3.74314e+6 
        915.321      3.84327e+6 
        915.421      3.78785e+6 
        915.521       3.5614e+6 
        915.601      3.35654e+6 
        915.609      3.33499e+6 
        915.622      3.31334e+6 
        915.643      3.28174e+6 
        915.677       3.2698e+6 
        915.745      3.37124e+6 
        915.881      3.81565e+6 
        916.017      4.06946e+6 
        916.153      3.92108e+6 
        916.289      3.39773e+6 
        916.379      3.04024e+6 
        916.421      2.97506e+6 
        916.425      2.97423e+6 
        916.429      2.97439e+6 
        916.479      3.05841e+6 
         916.58      3.51796e+6 
         916.68      4.03349e+6 
         916.78      4.39619e+6 
         916.88       4.5506e+6 
         916.98       4.4485e+6 
         917.08      4.11278e+6 
         917.18      3.56866e+6 
        917.182      3.55663e+6 
         917.28      2.93216e+6 
        917.378       2.6074e+6 
        917.575      3.63039e+6 
        917.771      4.78917e+6 
        917.967       5.2709e+6 
        918.163      4.88794e+6 
        918.359      3.74726e+6 
         918.51      2.64064e+6 
        918.556      2.38984e+6 
        918.602      2.30008e+6 
        918.694      2.64847e+6 
        918.878      4.08093e+6 
        919.062      5.32302e+6 
        919.201      5.97053e+6 
        919.241      6.09862e+6 
        919.246       6.1125e+6 
        919.251      6.12595e+6 
        919.301      6.23254e+6 
        919.402      6.30782e+6 
        919.502      6.22956e+6 
        919.602      5.95897e+6 
        919.702      5.50454e+6 
        919.802      4.94631e+6 
        919.902      4.25045e+6 
        920.002      3.47297e+6 
        920.102      2.62589e+6 
        920.165      2.20676e+6 
        920.189      2.12071e+6 
        920.202      2.09911e+6 
        920.215      2.09157e+6 
        920.265      2.20919e+6 
        920.366      2.96352e+6 
        920.466      3.79652e+6 
        920.566      4.58739e+6 
        920.666      5.33571e+6 
        920.766       6.0005e+6 
        920.866      6.61685e+6 
        920.966      7.09519e+6 
        921.066      7.46593e+6 
        921.166      7.71581e+6 
        921.266      7.83011e+6 
        921.367      7.82734e+6 
        921.467      7.69715e+6 
        921.567       7.4195e+6 
        921.667      7.02331e+6 
        921.767      6.52138e+6 
        921.867      5.89652e+6 
        921.967      5.23333e+6 
        922.067      4.48283e+6 
        922.167      3.65336e+6 
        922.267      2.77666e+6 
        922.331      2.22345e+6 
        922.368      2.03569e+6 
        922.405      1.98021e+6 
        922.479      2.22695e+6 
        922.627      3.54689e+6 
         922.67      3.92822e+6 
         922.74      4.50922e+6 
        922.775      4.78923e+6 
         922.81      5.07245e+6 
         922.95      6.10499e+6 
         923.09      7.10518e+6 
         923.23      7.97829e+6 
        923.371      8.73972e+6 
        923.511      9.31281e+6 
        923.651      9.73002e+6 
        923.791       9.9727e+6 
        923.931      1.00764e+7 
        924.071      1.00368e+7 
        924.211      9.83284e+6 
        924.352      9.45937e+6 
        924.492      8.91556e+6 
        924.632      8.19243e+6 
        924.772       7.3468e+6 
        924.912      6.38805e+6 
        925.052      5.35748e+6 
        925.192       4.2147e+6 
        925.333      2.89206e+6 
        925.434      2.04135e+6 
        925.462      1.96356e+6 
        925.473       1.9526e+6 
        925.484      1.94945e+6 
        925.534      2.04351e+6 
        925.634      2.89071e+6 
        925.734      3.86548e+6 
        925.834       4.7455e+6 
        925.934      5.56008e+6 
        926.034       6.3278e+6 
        926.134      7.09054e+6 
        926.232      7.78769e+6 
        926.301      8.25796e+6 
        926.335       8.4976e+6 
        926.369       8.7292e+6 
        926.505      9.59332e+6 
        926.641       1.0361e+7 
        926.777      1.10415e+7 
        926.913      1.16247e+7 
        927.049      1.21063e+7 
        927.185      1.25031e+7 
        927.322      1.28098e+7 
        927.458      1.30407e+7 
        927.594      1.31888e+7 
         927.73      1.32707e+7 
        927.866      1.32817e+7 
        928.002       1.3218e+7 
        928.006      1.32149e+7 
        928.094      1.31119e+7 
        928.138      1.30421e+7 
        928.182      1.29613e+7 
        928.359      1.25271e+7 
        928.535      1.19227e+7 
        928.711      1.11368e+7 
        928.887       1.0249e+7 
        928.985      9.71836e+6 
        929.037      9.42069e+6 
        929.063      9.26503e+6 
        929.089      9.10537e+6 
        929.125       8.8771e+6 
        929.193      8.42619e+6 
        929.261      7.96705e+6 
        929.398      7.00098e+6 
        929.493      6.27448e+6 
        929.525       6.0252e+6 
        929.534      5.95558e+6 
        929.543      5.88568e+6 
        929.593      5.48371e+6 
        929.617      5.28655e+6 
        929.655       4.9634e+6 
        929.693      4.62521e+6 
        929.769       3.9213e+6 
        929.827      3.32676e+6 
        929.883      2.72858e+6 
         929.91      2.43823e+6 
        929.939       2.1705e+6 
        929.954      2.08836e+6 
        929.968      2.03478e+6 
        929.982      2.01069e+6 
        929.996      2.00054e+6 
         930.01      1.99771e+6 
        930.024      2.00113e+6 
        930.038      2.01188e+6 
        930.052      2.03658e+6 
        930.081      2.17372e+6 
        930.137      2.73564e+6 
        930.201      3.42358e+6 
        930.247      3.89966e+6 
        930.249      3.91986e+6 
        930.251      3.93997e+6 
        930.301       4.4211e+6 
        930.326      4.63577e+6 
        930.402      5.31042e+6 
        930.478      5.94078e+6 
         930.63       7.1458e+6 
        930.633      7.16893e+6 
        930.782      8.26663e+6 
        930.931      9.32371e+6 
         931.08       1.0278e+7 
        931.229      1.11861e+7 
        931.379      1.21054e+7 
        931.516      1.28966e+7 
        931.528      1.29632e+7 
        931.677      1.37371e+7 
        931.838      1.45165e+7 
        931.999      1.52128e+7 
         932.16      1.57815e+7 
        932.321      1.62887e+7 
        932.483      1.67322e+7 
        932.644      1.71199e+7 
        932.805      1.74301e+7 
        932.966      1.76726e+7 
        933.127      1.78699e+7 
        933.173      1.79178e+7 
        933.265      1.80022e+7 
        933.288      1.80208e+7 
        933.403      1.80986e+7 
        933.432      1.81122e+7 
        933.542      1.81482e+7 
        933.652      1.81571e+7 
        933.762      1.81363e+7 
        933.872      1.80853e+7 
        933.982      1.79964e+7 
        934.092      1.78647e+7 
        934.202      1.76948e+7 
        934.312      1.74859e+7 
        934.413      1.72685e+7 
        934.422      1.72491e+7 
        934.533      1.69903e+7 
        934.652      1.66663e+7 
        934.771      1.62976e+7 
         934.89      1.58928e+7 
        935.009      1.54371e+7 
        935.026      1.53676e+7 
        935.128      1.49521e+7 
         935.23      1.45439e+7 
        935.332      1.41096e+7 
        935.434      1.36583e+7 
        935.537      1.31835e+7 
        935.639      1.26815e+7 
        935.741      1.21563e+7 
        935.843      1.15977e+7 
        935.945      1.09983e+7 
         935.95      1.09681e+7 
        936.047      1.03701e+7 
        936.144      9.73485e+6 
        936.338      8.37385e+6 
        936.464      7.42782e+6 
        936.532      6.88216e+6 
        936.601      6.31991e+6 
        936.645      5.94264e+6 
        936.714      5.33232e+6 
        936.737      5.11938e+6 
        936.829      4.22893e+6 
        936.887      3.58198e+6 
        936.944      2.90647e+6 
        936.973       2.5549e+6 
        937.001      2.26689e+6 
        937.015      2.19337e+6 
        937.029      2.15115e+6 
        937.043      2.13798e+6 
        937.058      2.13383e+6 
        937.072      2.13324e+6 
        937.086      2.13445e+6 
        937.101      2.13926e+6 
        937.115      2.15306e+6 
        937.143       2.2702e+6 
         937.15      2.33188e+6 
        937.186      2.74145e+6 
        937.199      2.90173e+6 
         937.25      3.51384e+6 
        937.314       4.2382e+6 
        937.341      4.51858e+6 
        937.442      5.47897e+6 
        937.543      6.37495e+6 
        937.645        7.225e+6 
        937.746      8.02931e+6 
        937.847      8.79357e+6 
        937.896      9.15693e+6 
        937.948      9.53605e+6 
            938      9.90601e+6 
        938.104      1.06222e+7 
        938.208      1.13027e+7 
        938.312      1.19585e+7 
        938.416       1.2577e+7 
         938.52      1.31697e+7 
        938.543      1.32986e+7 
        938.556      1.33714e+7 
        938.624       1.3747e+7 
        938.729      1.43044e+7 
        938.914      1.52729e+7 
        939.093      1.61964e+7 
        939.271      1.71453e+7 
        939.449        1.804e+7 
        939.628      1.89028e+7 
        939.807      1.97375e+7 
        939.986      2.05828e+7 
        940.164       2.1382e+7 
        940.343      2.21148e+7 
        940.521      2.27979e+7 
         940.58      2.30132e+7 
         940.66      2.33007e+7 
          940.7      2.34412e+7 
         940.74       2.3578e+7 
        940.901      2.40589e+7 
        941.061      2.45082e+7 
        941.221      2.49268e+7 
        941.381      2.53073e+7 
        941.541      2.56354e+7 
        941.701      2.59415e+7 
        942.022      2.64888e+7 
        942.342       2.6941e+7 
        942.662      2.72803e+7 
        942.917      2.74726e+7 
        942.982        2.751e+7 
        943.048      2.75424e+7 
        943.178      2.75932e+7 
        943.438      2.75883e+7 
        943.698      2.74652e+7 
        943.828      2.73582e+7 
        943.958      2.72203e+7 
        944.088      2.70456e+7 
        944.219      2.68289e+7 
        944.349      2.65755e+7 
        944.479      2.62856e+7 
        944.609      2.59591e+7 
        944.691      2.57345e+7 
        944.739      2.55964e+7 
        944.845      2.53008e+7 
        944.999      2.48395e+7 
        945.153      2.43382e+7 
        945.308      2.37978e+7 
        945.462      2.32488e+7 
        945.616      2.26733e+7 
         945.77      2.20597e+7 
        945.924      2.14241e+7 
        946.078      2.07967e+7 
        946.232       2.0144e+7 
        946.541      1.88527e+7 
        946.695      1.81921e+7 
        946.849      1.75209e+7 
        947.003      1.68209e+7 
        947.108      1.63292e+7 
        947.157      1.60956e+7 
        947.208      1.58485e+7 
        947.308      1.53543e+7 
        947.509      1.43082e+7 
        947.709      1.31857e+7 
        947.735      1.30322e+7 
        947.909      1.19443e+7 
        948.083      1.07535e+7 
        948.257       9.4544e+6 
        948.317      8.98549e+6 
        948.431       8.0498e+6 
        948.546      7.04596e+6 
         948.66      5.96827e+6 
        948.727      5.28991e+6 
        948.761      4.92957e+6 
        948.771      4.81807e+6 
        948.774      4.78436e+6 
        948.777      4.75065e+6 
        948.827      4.13757e+6 
        948.835      4.03575e+6 
        948.893      3.25268e+6 
        948.922      2.84217e+6 
        948.951      2.49745e+6 
        948.966      2.43117e+6 
         948.98      2.40915e+6 
        948.994      2.40604e+6 
        949.009      2.40573e+6 
        949.023      2.40603e+6 
        949.037      2.40641e+6 
        949.052      2.40743e+6 
        949.066      2.41123e+6 
        949.095      2.50104e+6 
        949.153      3.26088e+6 
         949.23      4.29493e+6 
        949.258      4.64736e+6 
        949.269      4.77236e+6 
         949.28      4.89711e+6 
         949.33       5.4342e+6 
         949.36      5.74343e+6 
         949.43      6.43967e+6 
          949.5      7.10565e+6 
         949.64      8.35918e+6 
        949.781      9.51507e+6 
        949.795      9.62647e+6 
        949.879      1.02882e+7 
        949.921      1.06091e+7 
        949.963      1.09251e+7 
        950.131      1.21273e+7 
        950.299      1.32389e+7 
        950.467      1.42635e+7 
        950.635      1.52344e+7 
        950.719      1.57045e+7 
        950.804       1.6161e+7 
        950.888      1.66096e+7 
        951.056      1.74852e+7 
        951.224      1.83392e+7 
        951.392      1.91741e+7 
         951.56      2.00064e+7 
        951.728      2.08338e+7 
        951.896      2.17202e+7 
        952.065      2.26011e+7 
        952.233      2.35006e+7 
        952.401      2.44259e+7 
        952.688      2.59795e+7 
        952.737      2.62599e+7 
        952.788      2.65529e+7 
        952.888      2.71282e+7 
        953.089      2.82839e+7 
        953.489      3.06841e+7 
        953.889      3.31444e+7 
         954.29      3.54987e+7 
         954.49      3.66313e+7 
         954.69      3.77425e+7 
         954.89      3.87836e+7 
         955.09      3.97025e+7 
         955.29      4.05985e+7 
        955.491      4.14684e+7 
        955.768      4.26364e+7 
        955.891      4.31221e+7 
        956.014      4.35962e+7 
         956.26       4.4545e+7 
        956.753      4.63592e+7 
        957.245      4.80529e+7 
        957.738      4.96208e+7 
        958.156      5.08438e+7 
         958.23      5.10499e+7 
        958.722      5.23436e+7 
        959.289      5.36216e+7 
        959.572      5.41805e+7 
        959.855      5.46725e+7 
        960.139      5.50979e+7 
         960.38      5.53995e+7 
        960.414      5.54375e+7 
        960.422      5.54463e+7 
         960.43      5.54551e+7 
         960.48      5.55223e+7 
         960.58      5.56492e+7 
         960.78      5.58698e+7 
         961.18      5.61673e+7 
        961.581      5.62713e+7 
        961.981      5.61707e+7 
        962.381      5.58563e+7 
        962.782      5.53282e+7 
        963.182      5.45622e+7 
        963.582      5.35846e+7 
        963.735      5.31589e+7 
        963.983      5.24043e+7 
        964.231      5.15633e+7 
        964.479      5.06557e+7 
        964.727       4.9683e+7 
        964.976      4.86344e+7 
        965.224      4.75323e+7 
        965.472      4.63687e+7 
        965.968      4.39022e+7 
        966.465      4.13072e+7 
        966.883      3.90491e+7 
        966.961      3.86215e+7 
        967.458      3.59068e+7 
        968.032       3.2764e+7 
        969.065       2.7106e+7 
        969.132      2.67351e+7 
        969.181      2.64631e+7 
        969.297      2.58168e+7 
        969.331      2.56281e+7 
        969.529      2.44932e+7 
        969.728      2.33293e+7 
        969.927      2.21267e+7 
        970.125      2.08682e+7 
        970.324      1.95388e+7 
        970.522      1.81183e+7 
        970.568      1.77754e+7 
        970.721      1.65597e+7 
        970.874      1.52461e+7 
        971.027      1.38156e+7 
        971.181       1.2217e+7 
        971.292      1.09259e+7 
         971.32      1.05819e+7 
        971.334      1.04067e+7 
        971.348      1.02293e+7 
        971.404      9.49509e+6 
        971.447      8.91047e+6 
        971.467      8.63118e+6 
        971.516      7.92263e+6 
        971.585      6.87321e+6 
        971.644      5.91373e+6 
        971.703      4.88656e+6 
        971.732      4.36235e+6 
        971.762      3.79903e+6 
        971.778       3.5036e+6 
        971.792      3.26349e+6 
        971.806      3.07865e+6 
        971.821      3.00352e+6 
        971.827      3.00257e+6 
        971.833      3.00274e+6 
        971.836      3.00282e+6 
        971.839      3.00291e+6 
        971.851      3.00325e+6 
        971.866      3.03197e+6 
         971.88      3.17747e+6 
         971.91      3.69247e+6 
        971.969      4.79017e+6 
        972.037      5.98417e+6 
        972.087      6.80576e+6 
        972.137       7.5866e+6 
         972.15      7.78348e+6 
        972.237      9.04339e+6 
        972.324      1.02122e+7 
        972.499      1.22905e+7 
        972.548      1.28163e+7 
        972.673      1.40664e+7 
        972.798      1.51943e+7 
        972.923      1.62261e+7 
        973.048      1.71704e+7 
        973.173      1.80463e+7 
        973.298      1.88643e+7 
        973.351      1.91984e+7 
        973.423       1.9641e+7 
        973.548      2.03799e+7 
        973.746      2.14893e+7 
        973.943      2.25497e+7 
         974.14      2.35468e+7 
        974.337      2.45245e+7 
        974.731      2.64462e+7 
        975.126      2.82834e+7 
          975.4      2.95427e+7 
         975.52      3.00567e+7 
         975.64      3.05745e+7 
         975.88      3.16346e+7 
         976.12      3.26829e+7 
        976.361      3.37489e+7 
        976.601      3.48698e+7 
        976.841      3.60715e+7 
        977.081      3.73765e+7 
        977.321       3.8787e+7 
        977.802      4.14637e+7 
        978.042      4.29198e+7 
        978.282      4.43404e+7 
        978.522      4.58848e+7 
        978.762       4.7603e+7 
        978.883      4.85433e+7 
        979.003      4.95429e+7 
        979.123      5.06114e+7 
        979.181      5.11568e+7 
        979.243       5.1759e+7 
        979.305      5.23842e+7 
        979.429      5.34866e+7 
        979.553      5.46596e+7 
        979.677      5.59138e+7 
        979.801      5.72584e+7 
        979.925      5.87079e+7 
        980.049      5.99636e+7 
        980.173      6.10656e+7 
        980.298      6.22161e+7 
        980.422      6.34178e+7 
        980.546      6.46709e+7 
        980.794      6.69401e+7 
        981.042      6.89979e+7 
         981.29      7.11495e+7 
        981.636      7.40505e+7 
        981.787      7.53539e+7 
        982.207      7.89149e+7 
        982.779      8.36879e+7 
        983.066      8.61268e+7 
        983.351      8.86234e+7 
        983.637      9.12831e+7 
        983.923      9.40492e+7 
        984.496      9.94345e+7 
