# Koester WD models
# teff = 18000 K (value for the effective temperature for the model. Temperatures are given in K)
# logg = 9.5 log(cm/s2) (value for Log(G) for the model.)
#
# column 1: WAVELENGTH (ANGSTROM), Wavelength in Angstrom
# column 2: FLUX (ERG/CM2/S/A), Flux in erg/cm2/s/A
         899.23      3.25723e+6 
        900.377      3.29217e+6 
        901.108      3.31457e+6 
        902.671      3.36282e+6 
        904.235      3.41161e+6 
        905.485      3.45095e+6 
        907.363      3.51064e+6 
         908.45      3.54554e+6 
        909.241      3.57102e+6 
        910.032      3.59662e+6 
        911.193      3.63426e+6 
        911.613      3.64783e+6 
        911.824      3.65458e+6 
        911.929      3.65794e+6 
        912.034      3.66127e+6 
        912.139      3.68122e+6 
        912.244      3.70105e+6 
        912.349      3.72071e+6 
        912.454      3.74022e+6 
        912.559      3.75951e+6 
        912.664       3.7789e+6 
         912.77      3.79812e+6 
        912.875      3.81697e+6 
        912.886      3.81889e+6 
        913.037      3.84487e+6 
        913.085      3.85288e+6 
        913.241      3.87792e+6 
        913.284      3.88445e+6 
        913.531      3.91917e+6 
        913.822      3.95175e+6 
        914.059      3.96708e+6 
        914.112      3.97141e+6 
        914.165      3.97405e+6 
        914.271      3.97452e+6 
        914.391      3.96843e+6 
        914.448      3.96742e+6 
        914.483      3.96676e+6 
        914.575      3.96692e+6 
        914.604      3.96774e+6 
         914.76      3.96136e+6 
        914.916      3.92203e+6 
        915.071      3.89404e+6 
        915.122        3.899e+6 
        915.226      3.92149e+6 
        915.252      3.92696e+6 
        915.382      3.91398e+6 
        915.512      3.81097e+6 
        915.609      3.73008e+6 
        915.643      3.71327e+6 
        915.677      3.71968e+6 
        915.745      3.77136e+6 
        915.881      3.94955e+6 
        916.017      4.06129e+6 
        916.153      3.98476e+6 
        916.289      3.74233e+6 
        916.379      3.60162e+6 
        916.421      3.58151e+6 
        916.425      3.58192e+6 
        916.429      3.58277e+6 
        916.479      3.62986e+6 
         916.58      3.85587e+6 
         916.68      4.12818e+6 
         916.78      4.33219e+6 
         916.88      4.41017e+6 
         916.98      4.33618e+6 
         917.08      4.10499e+6 
         917.18      3.75345e+6 
        917.182      3.74698e+6 
         917.28      3.39097e+6 
        917.378      3.22007e+6 
        917.575       3.8405e+6 
        917.771      4.63423e+6 
        917.967      4.95203e+6 
        918.163      4.62829e+6 
        918.359      3.75552e+6 
         918.51      3.00164e+6 
        918.556        2.851e+6 
        918.602      2.79465e+6 
        918.694      3.01523e+6 
        918.878      4.04408e+6 
        919.062      5.01037e+6 
        919.201      5.51896e+6 
        919.241      5.61723e+6 
        919.246      5.62766e+6 
        919.251      5.63768e+6 
        919.301      5.71858e+6 
        919.402       5.7696e+6 
        919.502       5.6969e+6 
        919.602      5.46851e+6 
        919.702       5.0732e+6 
        919.802      4.61886e+6 
        919.902      4.03867e+6 
        920.002        3.426e+6 
        920.102      2.82509e+6 
        920.165       2.5444e+6 
        920.189       2.4861e+6 
        920.202      2.47039e+6 
        920.215      2.46498e+6 
        920.265      2.54749e+6 
        920.366      3.05192e+6 
        920.466       3.6969e+6 
        920.566      4.34649e+6 
        920.766      5.55515e+6 
        920.966      6.50325e+6 
        921.166      7.03685e+6 
        921.367      7.11646e+6 
        921.567      6.74877e+6 
        921.767       5.9455e+6 
        921.967      4.80551e+6 
        922.167      3.48434e+6 
        922.331      2.44206e+6 
        922.368      2.30928e+6 
        922.405      2.26697e+6 
        922.479      2.44592e+6 
        922.627      3.40137e+6 
         922.67      3.71471e+6 
         922.74      4.19104e+6 
        922.775      4.43495e+6 
         922.81      4.67739e+6 
         922.95      5.59361e+6 
         923.09      6.48503e+6 
         923.23      7.28554e+6 
        923.371      7.97619e+6 
        923.511       8.4998e+6 
        923.651       8.8995e+6 
        923.791       9.1338e+6 
        923.931      9.22899e+6 
        924.071      9.18206e+6 
        924.211      8.97594e+6 
        924.352       8.6035e+6 
        924.492      8.09215e+6 
        924.632      7.43329e+6 
        924.772      6.65295e+6 
        924.912      5.79756e+6 
        925.052      4.86956e+6 
        925.192       3.8903e+6 
        925.333      2.84412e+6 
        925.434      2.25878e+6 
        925.462      2.19518e+6 
        925.473      2.18484e+6 
        925.484      2.18169e+6 
        925.534      2.26115e+6 
        925.634      2.84456e+6 
        925.734       3.6139e+6 
        925.834      4.33901e+6 
        925.934      5.05159e+6 
        926.034      5.74594e+6 
        926.134      6.42949e+6 
        926.232      7.06557e+6 
        926.301      7.50288e+6 
        926.335       7.7259e+6 
        926.369       7.9406e+6 
        926.505      8.73378e+6 
        926.641      9.47385e+6 
        926.777      1.01513e+7 
        926.913      1.07272e+7 
        927.049      1.12097e+7 
        927.185      1.16072e+7 
        927.322      1.19093e+7 
        927.458      1.21319e+7 
        927.594      1.22758e+7 
         927.73       1.2351e+7 
        927.866      1.23531e+7 
        928.002      1.22772e+7 
        928.006      1.22738e+7 
        928.094      1.21671e+7 
        928.138      1.20967e+7 
        928.182      1.20154e+7 
        928.359      1.15828e+7 
        928.535      1.09987e+7 
        928.711      1.02462e+7 
        928.887      9.36814e+6 
        928.985      8.85084e+6 
        929.037      8.56813e+6 
        929.063      8.42135e+6 
        929.089      8.27062e+6 
        929.125      8.05621e+6 
        929.193      7.63294e+6 
        929.261      7.20458e+6 
        929.398      6.32519e+6 
        929.493      5.66765e+6 
        929.525      5.44212e+6 
        929.534      5.37995e+6 
        929.543       5.3173e+6 
        929.593      4.96051e+6 
        929.617      4.78666e+6 
        929.655      4.50435e+6 
        929.693      4.21215e+6 
        929.769      3.63997e+6 
        929.827       3.1698e+6 
        929.883      2.70885e+6 
         929.91      2.50867e+6 
        929.939      2.33772e+6 
        929.954      2.27884e+6 
        929.968      2.24057e+6 
        929.982      2.21943e+6 
        929.996       2.2093e+6 
         930.01      2.20616e+6 
        930.024      2.20994e+6 
        930.038      2.22073e+6 
        930.052      2.24253e+6 
        930.081      2.34116e+6 
        930.137      2.71588e+6 
        930.201      3.24756e+6 
        930.247      3.62493e+6 
        930.249       3.6412e+6 
        930.251      3.65747e+6 
        930.301      4.04794e+6 
        930.326      4.22287e+6 
        930.402      4.80946e+6 
        930.478      5.36791e+6 
         930.63      6.45685e+6 
        930.633      6.47749e+6 
        930.782      7.48227e+6 
        930.931      8.47363e+6 
         931.08      9.37963e+6 
        931.229      1.02828e+7 
        931.379       1.1171e+7 
        931.528      1.19911e+7 
        931.677       1.2738e+7 
        931.788      1.32713e+7 
        931.814      1.33926e+7 
        931.826      1.34477e+7 
        931.838      1.35024e+7 
        931.888      1.37247e+7 
        931.988      1.41425e+7 
        932.188      1.48492e+7 
        932.389      1.54518e+7 
        932.589      1.59591e+7 
        932.789      1.63638e+7 
        932.989      1.66631e+7 
        933.189      1.68939e+7 
        933.347      1.70265e+7 
        933.375      1.70452e+7 
        933.377      1.70464e+7 
        933.389       1.7054e+7 
        933.403      1.70624e+7 
        933.432      1.70758e+7 
         933.46      1.70872e+7 
        933.542      1.71106e+7 
        933.652       1.7118e+7 
        933.762      1.70941e+7 
        933.872      1.70398e+7 
        933.982      1.69499e+7 
        934.092      1.68213e+7 
        934.202      1.66556e+7 
        934.312       1.6451e+7 
        934.413      1.62365e+7 
        934.422      1.62172e+7 
        934.533      1.59611e+7 
        934.652      1.56435e+7 
        934.771      1.52842e+7 
         934.89       1.4905e+7 
        935.009      1.44766e+7 
        935.026      1.44112e+7 
        935.128      1.40133e+7 
         935.23      1.36067e+7 
        935.332       1.3172e+7 
        935.434      1.27219e+7 
        935.537      1.22485e+7 
        935.639      1.17497e+7 
        935.741      1.12286e+7 
        935.843      1.06765e+7 
        935.945      1.00856e+7 
         935.95       1.0056e+7 
        936.047      9.47617e+6 
        936.144      8.87157e+6 
        936.338      7.58582e+6 
        936.464      6.71195e+6 
        936.532      6.21508e+6 
        936.601      5.70617e+6 
        936.645       5.3698e+6 
        936.714      4.83271e+6 
        936.737      4.64868e+6 
        936.829      3.90575e+6 
        936.887      3.38846e+6 
        936.944      2.86125e+6 
        936.973      2.61538e+6 
        937.001      2.43718e+6 
        937.015      2.38717e+6 
        937.029      2.35873e+6 
        937.043      2.34714e+6 
        937.058      2.34241e+6 
        937.072      2.34159e+6 
        937.086      2.34308e+6 
        937.101      2.34853e+6 
        937.115      2.36081e+6 
        937.143      2.44071e+6 
         937.15      2.47999e+6 
        937.186      2.74704e+6 
        937.199      2.85981e+6 
         937.25       3.3364e+6 
        937.314      3.91565e+6 
        937.341      4.14335e+6 
        937.442      4.96205e+6 
        937.543      5.75672e+6 
        937.645      6.52895e+6 
        937.746      7.26214e+6 
        937.847      7.97773e+6 
        937.896      8.32041e+6 
        937.948      8.68009e+6 
            938       9.0317e+6 
        938.104      9.71406e+6 
        938.208      1.03754e+7 
        938.312      1.10217e+7 
        938.416      1.16321e+7 
         938.52      1.22187e+7 
        938.543      1.23466e+7 
        938.556       1.2419e+7 
        938.624      1.27923e+7 
        938.729      1.33452e+7 
        938.736       1.3379e+7 
        938.914      1.43101e+7 
        939.093      1.52127e+7 
        939.271      1.61008e+7 
        939.449      1.69483e+7 
        939.628      1.77891e+7 
        939.807      1.86008e+7 
        939.986      1.94106e+7 
        940.164      2.01662e+7 
        940.343      2.08583e+7 
        940.521      2.14985e+7 
         940.58      2.16976e+7 
         940.66      2.19618e+7 
          940.7      2.20907e+7 
         940.74      2.22157e+7 
        940.901      2.26408e+7 
        941.061      2.30357e+7 
        941.221      2.34027e+7 
        941.381      2.37393e+7 
        941.541      2.40369e+7 
        941.701      2.43143e+7 
        942.022      2.48093e+7 
        942.342      2.52196e+7 
        942.662      2.55364e+7 
        942.917      2.57227e+7 
        942.982      2.57607e+7 
        943.048      2.57943e+7 
        943.178      2.58485e+7 
        943.438      2.58624e+7 
        943.698      2.57749e+7 
        943.828      2.56919e+7 
        943.958      2.55814e+7 
        944.088      2.54377e+7 
        944.219      2.52553e+7 
        944.349      2.50405e+7 
        944.479      2.47921e+7 
        944.609      2.45094e+7 
        944.739      2.41929e+7 
        944.999      2.35073e+7 
        945.115      2.31638e+7 
        945.212      2.28618e+7 
         945.26      2.27051e+7 
        945.308      2.25449e+7 
          945.5      2.19149e+7 
        945.692       2.1241e+7 
        945.884      2.05105e+7 
        946.076      1.97675e+7 
        946.147      1.94803e+7 
        946.268      1.89775e+7 
        946.401      1.84332e+7 
        946.653      1.73787e+7 
        946.906      1.62902e+7 
        947.032      1.57159e+7 
        947.158      1.51222e+7 
        947.284      1.45048e+7 
         947.41      1.38589e+7 
        947.538      1.31816e+7 
        947.664      1.24754e+7 
         947.79      1.17327e+7 
        947.916      1.09407e+7 
        947.922      1.09053e+7 
        948.002      1.03813e+7 
        948.043      1.01118e+7 
        948.083      9.83652e+6 
        948.244      8.69439e+6 
        948.265      8.54243e+6 
        948.405      7.49414e+6 
        948.546      6.37787e+6 
        948.595      5.97075e+6 
        948.661      5.41268e+6 
        948.686      5.19648e+6 
        948.777      4.38783e+6 
        948.835      3.81053e+6 
        948.893      3.19224e+6 
        948.922      2.90086e+6 
        948.951      2.69358e+6 
        948.966      2.65135e+6 
         948.98      2.63782e+6 
        948.994      2.63531e+6 
        949.009      2.63493e+6 
        949.023      2.63516e+6 
        949.037      2.63566e+6 
        949.052      2.63683e+6 
        949.066      2.64007e+6 
        949.095      2.69742e+6 
        949.153      3.20031e+6 
         949.23      4.02218e+6 
        949.258      4.30543e+6 
        949.269      4.40809e+6 
         949.28      4.51051e+6 
         949.33      4.96086e+6 
         949.36      5.22871e+6 
         949.43      5.83686e+6 
          949.5      6.43257e+6 
         949.64      7.57579e+6 
        949.781      8.65509e+6 
        949.795      8.76017e+6 
        949.879      9.38651e+6 
        949.921      9.69307e+6 
        949.963      9.99561e+6 
        950.131      1.11579e+7 
        950.299      1.22558e+7 
        950.467      1.32759e+7 
        950.635      1.42498e+7 
        950.719      1.47192e+7 
        950.804       1.5176e+7 
        950.888       1.5624e+7 
        951.056      1.64946e+7 
        951.224      1.73368e+7 
        951.392      1.81589e+7 
        951.728      1.98079e+7 
        952.064      2.15105e+7 
        952.401      2.32187e+7 
        952.738      2.49112e+7 
        953.075      2.67022e+7 
        953.413      2.84965e+7 
         953.75      3.03004e+7 
        954.087       3.2027e+7 
        954.425      3.36006e+7 
        954.593       3.4353e+7 
        954.762      3.50856e+7 
         954.93      3.57488e+7 
        955.099      3.63608e+7 
        955.267      3.69583e+7 
        955.437      3.75427e+7 
        955.534      3.78728e+7 
        955.774      3.86705e+7 
        956.014      3.94235e+7 
        956.494      4.08995e+7 
        956.975      4.22789e+7 
        957.455      4.35651e+7 
        957.543      4.37907e+7 
        957.936      4.47504e+7 
         957.98      4.48538e+7 
        958.416      4.58289e+7 
        958.852      4.67105e+7 
        959.289      4.74915e+7 
        959.725      4.81484e+7 
        959.893      4.83705e+7 
        960.162      4.86875e+7 
         960.43      4.89523e+7 
        960.966      4.93686e+7 
        961.234      4.94911e+7 
        961.503      4.95545e+7 
        961.771      4.95545e+7 
        962.039      4.94914e+7 
        962.307      4.93591e+7 
        962.576      4.91574e+7 
        962.844      4.88816e+7 
        963.112      4.85263e+7 
         963.38      4.81019e+7 
        963.648      4.76049e+7 
        963.917      4.70384e+7 
        964.047      4.67394e+7 
        964.139      4.65122e+7 
        964.185       4.6395e+7 
        964.231      4.62757e+7 
        964.415      4.57875e+7 
        964.783      4.47177e+7 
        965.152      4.35192e+7 
         965.52       4.2206e+7 
        965.888      4.07801e+7 
        966.257      3.92712e+7 
        966.625      3.76988e+7 
        966.691      3.74113e+7 
        966.993      3.60425e+7 
        967.361      3.43486e+7 
        968.032       3.1155e+7 
        968.108      3.07801e+7 
        968.405      2.93064e+7 
        968.703      2.78098e+7 
            969      2.62714e+7 
        969.297       2.4684e+7 
        969.594      2.30223e+7 
        969.786      2.19029e+7 
        969.856      2.14838e+7 
        969.892       2.1272e+7 
        969.927      2.10583e+7 
        970.067      2.01839e+7 
        970.207      1.92693e+7 
        970.347      1.83137e+7 
         970.38      1.80796e+7 
        970.487      1.73093e+7 
        970.504      1.71864e+7 
        970.627      1.62436e+7 
        970.751      1.52325e+7 
        970.874      1.41666e+7 
        970.895      1.39816e+7 
        970.997      1.30328e+7 
        971.008      1.29349e+7 
        971.121      1.18154e+7 
        971.235      1.06181e+7 
        971.348      9.32183e+6 
        971.461      7.92658e+6 
        971.535      6.96318e+6 
        971.563      6.58393e+6 
        971.567      6.53511e+6 
        971.574      6.43822e+6 
        971.585      6.28991e+6 
        971.635      5.60011e+6 
        971.644      5.47269e+6 
        971.703       4.6319e+6 
        971.732      4.20276e+6 
        971.762      3.76558e+6 
        971.778      3.54881e+6 
        971.792      3.39345e+6 
        971.806      3.30018e+6 
        971.821      3.28127e+6 
        971.827      3.28142e+6 
        971.833      3.28161e+6 
        971.836      3.28171e+6 
        971.839       3.2818e+6 
        971.851      3.28215e+6 
        971.866       3.2868e+6 
         971.88      3.34671e+6 
         971.91      3.68647e+6 
        971.969      4.55522e+6 
        972.037       5.5342e+6 
        972.087      6.23308e+6 
        972.137       6.9164e+6 
         972.15      7.08966e+6 
        972.237      8.22695e+6 
        972.324      9.30505e+6 
        972.499      1.12656e+7 
        972.548      1.17713e+7 
        972.673      1.29867e+7 
        972.798      1.41012e+7 
        972.923       1.5128e+7 
        973.048       1.6073e+7 
        973.173      1.69524e+7 
        973.298      1.77715e+7 
        973.351       1.8107e+7 
        973.423      1.85512e+7 
        973.548      1.92926e+7 
        973.746      2.04014e+7 
        973.943      2.14554e+7 
         974.14      2.24425e+7 
        974.337      2.34076e+7 
        974.731        2.529e+7 
        975.126      2.70746e+7 
          975.4      2.82812e+7 
         975.52      2.87706e+7 
         975.64      2.92609e+7 
         975.88      3.02575e+7 
        976.361      3.22189e+7 
        976.601      3.32431e+7 
        976.841      3.43304e+7 
        977.081      3.55006e+7 
        977.321      3.67557e+7 
        977.802      3.91131e+7 
        978.042       4.0377e+7 
        978.282      4.16035e+7 
        978.522       4.2927e+7 
        978.762      4.43882e+7 
        979.003       4.6025e+7 
        979.181      4.73667e+7 
        979.243      4.78662e+7 
        979.305      4.83843e+7 
        979.429      4.92976e+7 
        979.553      5.02649e+7 
        979.801      5.23851e+7 
        979.925      5.35629e+7 
        980.049      5.45783e+7 
        980.173      5.54632e+7 
        980.298      5.63806e+7 
        980.422      5.73322e+7 
        980.546      5.83224e+7 
        980.794      6.01134e+7 
        981.042       6.1731e+7 
         981.29      6.34024e+7 
        981.787      6.66297e+7 
        982.779      7.28765e+7 
        983.621      7.83051e+7 
        983.772      7.93384e+7 
        983.923       8.0388e+7 
        984.226      8.23905e+7 
         984.83      8.62838e+7 
        985.434      8.99573e+7 
        985.459      9.01138e+7 
        986.039       9.3753e+7 
        986.329      9.55041e+7 
        986.618      9.72449e+7 
        986.907       9.8696e+7 
        987.198      9.97895e+7 
        987.487      1.00844e+8 
        987.777      1.01809e+8 
