# Koester WD models
# teff = 18750 K (value for the effective temperature for the model. Temperatures are given in K)
# logg = 8.5 log(cm/s2) (value for Log(G) for the model.)
#
# column 1: WAVELENGTH (ANGSTROM), Wavelength in Angstrom
# column 2: FLUX (ERG/CM2/S/A), Flux in erg/cm2/s/A
         899.23      5.06632e+6 
        904.235       5.2939e+6 
         908.45      5.49088e+6 
        909.241      5.52835e+6 
        910.032      5.56593e+6 
        911.193      5.62138e+6 
        911.613      5.64133e+6 
        911.824      5.65122e+6 
        911.929      5.65612e+6 
        912.034      5.66099e+6 
        912.139      5.73328e+6 
        912.244      5.80466e+6 
        912.349      5.87525e+6 
        912.454      5.94487e+6 
        912.559       6.0137e+6 
        912.664       6.0815e+6 
         912.77      6.14775e+6 
        912.875      6.21168e+6 
        912.886      6.21815e+6 
        913.085      6.32132e+6 
        913.284      6.39691e+6 
        913.339      6.41139e+6 
        913.435      6.43323e+6 
        913.483      6.44693e+6 
        913.531      6.46043e+6 
        913.625      6.47652e+6 
        913.724      6.47576e+6 
        913.822      6.48117e+6 
        913.871      6.49194e+6 
        914.018      6.48239e+6 
        914.165      6.39229e+6 
        914.312      6.50018e+6 
        914.343      6.50564e+6 
        914.459      6.33527e+6 
        914.575      6.14307e+6 
        914.692      6.36587e+6 
        914.808         6.52e+6 
        914.924      6.22108e+6 
        915.009      5.83139e+6 
         915.04       5.7324e+6 
        915.071      5.70023e+6 
        915.133      5.85389e+6 
        915.257      6.45459e+6 
        915.381      6.61959e+6 
        915.505      6.07198e+6 
        915.609      5.34046e+6 
        915.617      5.29748e+6 
         915.63      5.22174e+6 
        915.643      5.16594e+6 
        915.677      5.10807e+6 
        915.745       5.3911e+6 
        915.881      6.51588e+6 
        916.017      7.08395e+6 
        916.153      6.78735e+6 
        916.289      5.65125e+6 
        916.379      4.74641e+6 
        916.421      4.55974e+6 
        916.425      4.55641e+6 
        916.429      4.55575e+6 
        916.479      4.76727e+6 
         916.58      5.86234e+6 
         916.68      6.94132e+6 
         916.78      7.67441e+6 
         916.88      7.99893e+6 
         916.98      7.81298e+6 
         917.08      7.17612e+6 
         917.18      6.12765e+6 
        917.182      6.10352e+6 
         917.28      4.79583e+6 
        917.378      3.99947e+6 
        917.575      6.21008e+6 
        917.771      8.40521e+6 
        917.967      9.34159e+6 
        918.163      8.66442e+6 
        918.359      6.56637e+6 
         918.51       4.3779e+6 
        918.556      3.79024e+6 
        918.602      3.56835e+6 
        918.694      4.38868e+6 
        918.878      7.15193e+6 
        919.062      9.42902e+6 
        919.201      1.06081e+7 
        919.241      1.08405e+7 
        919.246      1.08658e+7 
        919.251      1.08903e+7 
        919.301      1.10847e+7 
        919.402      1.12292e+7 
        919.502       1.1098e+7 
        919.602      1.06251e+7 
        919.702        9.833e+6 
        919.802      8.81267e+6 
        919.902      7.55682e+6 
        920.002       6.1355e+6 
        920.102      4.48557e+6 
        920.165      3.54538e+6 
        920.189      3.35327e+6 
        920.202      3.29852e+6 
        920.215      3.28073e+6 
        920.265      3.54903e+6 
        920.366      5.15828e+6 
        920.466      6.72119e+6 
        920.566      8.14709e+6 
        920.666      9.49741e+6 
        920.766      1.06705e+7 
        920.866      1.17337e+7 
        920.966      1.25625e+7 
        921.066      1.31893e+7 
        921.166      1.36115e+7 
        921.266      1.38083e+7 
        921.367      1.38078e+7 
        921.467      1.35909e+7 
        921.567       1.3133e+7 
        921.667      1.24712e+7 
        921.767      1.16064e+7 
        921.867      1.05374e+7 
        921.967       9.3704e+6 
        922.067      8.02111e+6 
        922.167      6.51318e+6 
        922.267      4.85948e+6 
        922.331      3.69923e+6 
        922.368      3.25827e+6 
        922.405      3.12346e+6 
        922.479      3.70469e+6 
        922.627      6.31705e+6 
         922.74      8.06296e+6 
        922.775      8.56059e+6 
         922.81      9.06884e+6 
         922.88       9.9957e+6 
         923.02       1.1769e+7 
         923.16      1.33466e+7 
        923.301      1.47378e+7 
        923.441      1.58431e+7 
        923.581      1.66612e+7 
        923.721       1.7198e+7 
        923.861       1.7487e+7 
        924.001      1.75483e+7 
        924.141      1.73598e+7 
        924.282      1.68968e+7 
        924.422      1.61368e+7 
        924.562      1.50717e+7 
        924.702      1.37395e+7 
        924.842      1.22464e+7 
        924.982      1.05094e+7 
        925.122       8.6129e+6 
        925.262      6.38701e+6 
        925.322      5.33065e+6 
        925.403      3.76027e+6 
        925.484      3.07614e+6 
        925.646      5.34724e+6 
        925.808       8.1125e+6 
         925.97      1.04379e+7 
        926.132      1.25619e+7 
         926.22       1.3625e+7 
        926.295      1.44743e+7 
        926.369      1.53285e+7 
        926.517      1.68923e+7 
        926.665       1.8251e+7 
        926.813      1.94116e+7 
        926.961      2.03797e+7 
        927.109      2.11524e+7 
        927.257      2.17683e+7 
        927.406      2.22356e+7 
        927.554      2.25501e+7 
        927.702      2.27308e+7 
         927.85      2.27775e+7 
        927.998      2.26848e+7 
        928.038      2.26292e+7 
         928.11      2.24717e+7 
        928.146       2.2375e+7 
        928.182      2.22661e+7 
        928.327      2.17041e+7 
        928.471      2.09619e+7 
        928.615      2.00105e+7 
        928.717      1.92201e+7 
        928.759       1.8862e+7 
        928.903      1.76941e+7 
        928.917      1.75711e+7 
        929.089      1.59516e+7 
        929.261      1.40639e+7 
        929.325      1.33318e+7 
        929.434      1.19672e+7 
        929.543      1.05242e+7 
        929.652       8.9471e+6 
        929.719       7.8793e+6 
        929.753      7.30493e+6 
        929.755      7.26952e+6 
        929.761      7.16233e+6 
        929.769      7.01716e+6 
        929.819       6.0918e+6 
        929.827      5.93547e+6 
        929.883      4.79275e+6 
         929.91      4.19626e+6 
        929.939      3.59103e+6 
        929.954       3.3757e+6 
        929.968      3.24071e+6 
        929.982      3.17521e+6 
        929.996      3.14703e+6 
         930.01      3.13953e+6 
        930.024      3.14791e+6 
        930.038      3.17697e+6 
        930.052      3.24344e+6 
        930.081      3.59609e+6 
        930.137      4.80441e+6 
        930.201      6.11354e+6 
        930.247      6.97434e+6 
        930.249      7.01144e+6 
        930.251      7.04835e+6 
        930.301      7.92137e+6 
        930.326      8.31335e+6 
        930.402      9.51268e+6 
        930.478      1.06161e+7 
         930.63      1.26741e+7 
        930.633      1.27134e+7 
        930.782      1.45591e+7 
        930.931      1.63095e+7 
         931.08      1.78867e+7 
        931.229      1.93587e+7 
        931.379      2.08635e+7 
        931.516      2.21714e+7 
        931.528      2.22825e+7 
        931.677      2.35796e+7 
        931.838      2.48771e+7 
        931.999      2.60376e+7 
         932.16      2.69753e+7 
        932.321      2.78188e+7 
        932.483      2.85642e+7 
        932.644      2.92235e+7 
        932.805      2.97569e+7 
        932.966      3.01736e+7 
        933.127      3.05126e+7 
        933.173      3.05949e+7 
        933.265      3.07397e+7 
        933.288      3.07716e+7 
        933.403      3.09044e+7 
        933.432      3.09279e+7 
        933.542      3.09908e+7 
        933.652      3.10065e+7 
        933.762      3.09713e+7 
        933.872      3.08841e+7 
        933.982      3.07292e+7 
        934.092      3.04976e+7 
        934.202      3.01999e+7 
        934.312      2.98345e+7 
        934.413      2.94565e+7 
        934.422      2.94227e+7 
        934.533      2.89755e+7 
        934.652      2.84177e+7 
        934.771      2.77839e+7 
         934.89      2.70843e+7 
        935.009         2.63e+7 
        935.026      2.61812e+7 
        935.128      2.54792e+7 
         935.23      2.48052e+7 
        935.332      2.40921e+7 
        935.434      2.33519e+7 
        935.537      2.25773e+7 
        935.639      2.17596e+7 
        935.741      2.09054e+7 
        935.843      1.99995e+7 
        935.945      1.90232e+7 
         935.95      1.89737e+7 
        936.047      1.79894e+7 
        936.144      1.69463e+7 
        936.338      1.47088e+7 
        936.464      1.31251e+7 
        936.532      1.22085e+7 
        936.601      1.12442e+7 
        936.645      1.05962e+7 
        936.714      9.52245e+6 
        936.737      9.14687e+6 
        936.829      7.54472e+6 
        936.887      6.37574e+6 
        936.944      5.09466e+6 
        936.973      4.36644e+6 
        937.001      3.70576e+6 
        937.015       3.5068e+6 
        937.029      3.39119e+6 
        937.043      3.34881e+6 
        937.058      3.33455e+6 
        937.072      3.33188e+6 
        937.086      3.33546e+6 
        937.101      3.35073e+6 
        937.115      3.39405e+6 
        937.143      3.71088e+6 
         937.15      3.85052e+6 
        937.186      4.76027e+6 
        937.199      5.08385e+6 
         937.25      6.24828e+6 
        937.314      7.55851e+6 
        937.341      8.06472e+6 
        937.442      9.77818e+6 
        937.543      1.13355e+7 
        937.645      1.27832e+7 
        937.746      1.41323e+7 
        937.847      1.53942e+7 
        937.896      1.59918e+7 
        937.948      1.66153e+7 
            938      1.72221e+7 
        938.104      1.83965e+7 
        938.208      1.95129e+7 
        938.312      2.05776e+7 
        938.416      2.15795e+7 
         938.52      2.25416e+7 
        938.543      2.27515e+7 
        938.556      2.28702e+7 
        938.624      2.34816e+7 
        938.729       2.4392e+7 
        938.914       2.5983e+7 
        939.271      2.91648e+7 
        939.628      3.22412e+7 
        939.986      3.52672e+7 
        940.164      3.67469e+7 
        940.343      3.81188e+7 
        940.521       3.9415e+7 
         940.58      3.98279e+7 
         940.66       4.0382e+7 
          940.7      4.06541e+7 
         940.74      4.09211e+7 
        940.901       4.1879e+7 
        941.061      4.27832e+7 
        941.221      4.36323e+7 
        941.381      4.44061e+7 
        941.541      4.50658e+7 
        941.701      4.56847e+7 
        942.022      4.67947e+7 
        942.182      4.72829e+7 
        942.342      4.77111e+7 
        942.502      4.80748e+7 
        942.662      4.83812e+7 
        942.917      4.87443e+7 
        942.982      4.88112e+7 
        943.048      4.88668e+7 
        943.178      4.89488e+7 
        943.308      4.89545e+7 
        943.438      4.88923e+7 
        943.568      4.87701e+7 
        943.698      4.85847e+7 
        943.828      4.83343e+7 
        943.958      4.80192e+7 
        944.088      4.76287e+7 
        944.219      4.71531e+7 
        944.349      4.66058e+7 
        944.479      4.59882e+7 
        944.609      4.52989e+7 
        944.691      4.48293e+7 
        944.739      4.45424e+7 
        944.845      4.39402e+7 
        944.999      4.30144e+7 
        945.153      4.20188e+7 
        945.308      4.09632e+7 
        945.616      3.87726e+7 
        945.924      3.64079e+7 
        946.232      3.40995e+7 
         946.54      3.18592e+7 
        946.849      2.95888e+7 
        947.004      2.84148e+7 
        947.158      2.72131e+7 
        947.312      2.59726e+7 
        947.468      2.46759e+7 
        947.471      2.46501e+7 
        947.622       2.3313e+7 
        947.624      2.32993e+7 
        947.777      2.18633e+7 
         947.93      2.02847e+7 
        948.033      1.91504e+7 
        948.083       1.8573e+7 
        948.133      1.79822e+7 
        948.233      1.67523e+7 
        948.333      1.54735e+7 
        948.433      1.40988e+7 
        948.495      1.31933e+7 
        948.521      1.28009e+7 
        948.534      1.26175e+7 
        948.546      1.24317e+7 
        948.596      1.16398e+7 
        948.615      1.13278e+7 
        948.661      1.05542e+7 
        948.696      9.93918e+6 
        948.777      8.41391e+6 
        948.835      7.13258e+6 
        948.893      5.65832e+6 
        948.922      4.80233e+6 
        948.951      4.01119e+6 
        948.966      3.82197e+6 
         948.98      3.74999e+6 
        948.994      3.73432e+6 
        949.009      3.73177e+6 
        949.023      3.73171e+6 
        949.037      3.73278e+6 
        949.052      3.73639e+6 
        949.066      3.75307e+6 
        949.095      4.01665e+6 
        949.153      5.67171e+6 
         949.23      7.59439e+6 
        949.258      8.22189e+6 
        949.269      8.44985e+6 
         949.28      8.67372e+6 
         949.33      9.62606e+6 
         949.36      1.01751e+7 
         949.43      1.13884e+7 
          949.5      1.25299e+7 
         949.64      1.46392e+7 
        949.781       1.6553e+7 
        949.795      1.67336e+7 
        949.879       1.7811e+7 
        949.921      1.83346e+7 
        949.963      1.88489e+7 
        950.131      2.08002e+7 
        950.299      2.25953e+7 
        950.467      2.42399e+7 
        950.635      2.57998e+7 
        950.719      2.65562e+7 
        950.804      2.72976e+7 
        950.888      2.80278e+7 
        951.056      2.94671e+7 
        951.392      3.22971e+7 
         951.56      3.37137e+7 
        951.728      3.51403e+7 
        951.896      3.66966e+7 
        952.065      3.82806e+7 
        952.233       3.9941e+7 
        952.401      4.16911e+7 
        952.688      4.46945e+7 
        952.737      4.52389e+7 
        952.788      4.58088e+7 
        952.888      4.69373e+7 
        953.089      4.92388e+7 
        953.289      5.15978e+7 
        953.489      5.41991e+7 
        953.689      5.68559e+7 
        953.889       5.9547e+7 
         954.29      6.48861e+7 
         954.49      6.75354e+7 
         954.69      7.01668e+7 
         954.89      7.26757e+7 
         955.09      7.49169e+7 
         955.29      7.71189e+7 
        955.491      7.92787e+7 
        955.768      8.21973e+7 
        955.891      8.34074e+7 
        956.014      8.45893e+7 
         956.26      8.69489e+7 
        956.753       9.1503e+7 
        957.245      9.58217e+7 
        957.738      9.98593e+7 
        958.156      1.03029e+8 
         958.23      1.03564e+8 
        958.439      1.05046e+8 
        958.722      1.06935e+8 
        959.006      1.08678e+8 
        959.289      1.10261e+8 
        959.572      1.11744e+8 
        959.855      1.13042e+8 
        960.139       1.1415e+8 
         960.38      1.14921e+8 
        960.414      1.15017e+8 
        960.422      1.15039e+8 
         960.43      1.15061e+8 
         960.48      1.15238e+8 
         960.58      1.15568e+8 
         960.78      1.16133e+8 
         961.18      1.16846e+8 
        961.381      1.16996e+8 
        961.581      1.16995e+8 
        961.781      1.16845e+8 
        961.981      1.16546e+8 
        962.181      1.16092e+8 
        962.381      1.15476e+8 
        962.582       1.1471e+8 
        962.782      1.13795e+8 
        962.982      1.12694e+8 
        963.182      1.11453e+8 
        963.382      1.10073e+8 
        963.582       1.0854e+8 
        963.735      1.07292e+8 
        963.983      1.05106e+8 
        964.231      1.02696e+8 
        964.479      1.00142e+8 
        964.727        9.745e+7 
        964.976      9.45912e+7 
        965.224      9.16337e+7 
        965.472      8.85675e+7 
        965.968       8.2234e+7 
        966.465      7.58242e+7 
        966.883      7.04753e+7 
         967.17      6.68779e+7 
        967.458       6.3375e+7 
        967.745      5.99714e+7 
        968.032      5.66938e+7 
        968.319      5.34815e+7 
        968.606      5.03977e+7 
        968.894      4.73966e+7 
        969.065      4.56395e+7 
        969.132      4.49571e+7 
        969.181      4.44595e+7 
        969.297      4.32839e+7 
        969.529      4.09265e+7 
        969.727      3.89071e+7 
        969.927        3.686e+7 
        970.126      3.47614e+7 
        970.324       3.2584e+7 
        970.523       3.0294e+7 
        970.568      2.97467e+7 
        970.721      2.78118e+7 
        970.874      2.57265e+7 
        971.027      2.34391e+7 
        971.181      2.08751e+7 
        971.292       1.8791e+7 
         971.32      1.82273e+7 
        971.334      1.79401e+7 
        971.348      1.76495e+7 
        971.404      1.64452e+7 
        971.447       1.5468e+7 
        971.467      1.49999e+7 
        971.516      1.38068e+7 
        971.585      1.20047e+7 
        971.644      1.03351e+7 
        971.703      8.52547e+6 
        971.732      7.57529e+6 
        971.762      6.53637e+6 
        971.778      5.95618e+6 
        971.792      5.44265e+6 
        971.806      4.96824e+6 
        971.821      4.63891e+6 
        971.827      4.60956e+6 
        971.833      4.60881e+6 
        971.836      4.60894e+6 
        971.839      4.60906e+6 
        971.851      4.61057e+6 
        971.866       4.8028e+6 
         971.88      5.23496e+6 
         971.91      6.32956e+6 
        971.969      8.35167e+6 
        972.037      1.04555e+7 
        972.087       1.1884e+7 
        972.137       1.3226e+7 
         972.15      1.35622e+7 
        972.237      1.56868e+7 
        972.324      1.76189e+7 
        972.499      2.09918e+7 
        972.548      2.18412e+7 
        972.673      2.38408e+7 
        972.798       2.5647e+7 
        972.923       2.7286e+7 
        973.048      2.87915e+7 
        973.173      3.01896e+7 
        973.298      3.14998e+7 
        973.423      3.27555e+7 
        973.548      3.39603e+7 
        973.601      3.44573e+7 
        973.673      3.51249e+7 
        973.746      3.57809e+7 
         973.89       3.7072e+7 
        974.178      3.95445e+7 
        974.445      4.18093e+7 
        974.466      4.19893e+7 
        975.043      4.68038e+7 
         975.64      5.17386e+7 
        975.939      5.42405e+7 
        976.237      5.67419e+7 
        976.537      5.94242e+7 
        976.686      6.08649e+7 
        976.835      6.23911e+7 
        976.984      6.40172e+7 
        977.134      6.57658e+7 
        977.283      6.76573e+7 
        977.432      6.93365e+7 
        977.582      7.10889e+7 
        977.732      7.29531e+7 
        977.881      7.49512e+7 
         978.03      7.69627e+7 
        978.179      7.89152e+7 
        978.329      8.09893e+7 
        978.478      8.32063e+7 
        978.627      8.55892e+7 
        978.776      8.82015e+7 
        978.927      9.10459e+7 
        979.076      9.41686e+7 
        979.145       9.5725e+7 
        979.225      9.76181e+7 
        979.305      9.96218e+7 
        979.465      1.03236e+8 
        979.625      1.07218e+8 
        979.785      1.11633e+8 
        979.945      1.16574e+8 
        980.105      1.20583e+8 
        980.266      1.24511e+8 
        980.426      1.28717e+8 
        980.586       1.3323e+8 
        980.746      1.37328e+8 
        980.906       1.4101e+8 
        981.226      1.48808e+8 
        981.867      1.64838e+8 
        982.507      1.80977e+8 
        982.827      1.89301e+8 
        983.148      1.97892e+8 
        983.468      2.06998e+8 
