# Koester WD models
# teff = 18750 K (value for the effective temperature for the model. Temperatures are given in K)
# logg = 9 log(cm/s2) (value for Log(G) for the model.)
#
# column 1: WAVELENGTH (ANGSTROM), Wavelength in Angstrom
# column 2: FLUX (ERG/CM2/S/A), Flux in erg/cm2/s/A
         899.23      5.21423e+6 
        904.235      5.44755e+6 
         908.45      5.64946e+6 
        909.241      5.68788e+6 
        910.032       5.7264e+6 
        911.193      5.78308e+6 
        911.613      5.80346e+6 
        911.824      5.81361e+6 
        911.929      5.81864e+6 
        912.034      5.82363e+6 
        912.139      5.86988e+6 
        912.244      5.91571e+6 
        912.349      5.96092e+6 
        912.454      6.00572e+6 
        912.559      6.04998e+6 
        912.664      6.09346e+6 
         912.77      6.13619e+6 
        912.875      6.17769e+6 
        912.886      6.18193e+6 
        913.037      6.23773e+6 
        913.085      6.25447e+6 
        913.284      6.31869e+6 
        913.531      6.38456e+6 
        913.649      6.40345e+6 
        913.736      6.42164e+6 
        913.779      6.43015e+6 
        913.822      6.43803e+6 
        913.994      6.43785e+6 
        914.165      6.44818e+6 
        914.336      6.44601e+6 
        914.439      6.41092e+6 
        914.507        6.379e+6 
        914.575      6.36832e+6 
        914.712      6.41689e+6 
        914.848      6.39298e+6 
        914.897      6.32883e+6 
        914.984      6.20449e+6 
        915.071      6.13654e+6 
        915.245      6.35126e+6 
        915.419      6.34573e+6 
        915.544      5.99699e+6 
        915.594      5.83931e+6 
        915.609      5.79256e+6 
        915.643      5.72866e+6 
        915.677      5.72093e+6 
        915.745      5.85609e+6 
        915.881      6.41205e+6 
        916.017      6.72049e+6 
        916.153      6.53351e+6 
        916.289      5.86171e+6 
        916.379      5.40316e+6 
        916.421      5.32022e+6 
        916.425      5.31956e+6 
        916.429      5.32026e+6 
        916.479      5.44008e+6 
         916.58      6.05869e+6 
         916.68      6.74154e+6 
         916.78      7.21121e+6 
         916.88      7.39974e+6 
         916.98      7.25626e+6 
         917.08      6.79131e+6 
         917.18      6.03933e+6 
        917.182      6.02328e+6 
         917.28      5.15055e+6 
        917.378      4.68088e+6 
        917.575      6.15752e+6 
        917.771       7.7772e+6 
        917.967      8.43295e+6 
        918.163      7.86187e+6 
        918.359      6.21514e+6 
         918.51      4.59901e+6 
        918.556      4.21476e+6 
        918.602      4.07125e+6 
        918.694       4.6145e+6 
        918.878      6.72131e+6 
        919.062      8.52188e+6 
        919.201      9.46904e+6 
        919.241      9.65235e+6 
        919.246      9.67205e+6 
        919.251      9.69106e+6 
        919.301       9.8433e+6 
        919.402      9.94616e+6 
        919.502      9.82514e+6 
        919.602      9.42292e+6 
        919.702      8.72936e+6 
        919.802       7.9121e+6 
        919.902      6.88097e+6 
        920.002      5.73498e+6 
        920.102      4.48258e+6 
        920.165      3.82011e+6 
        920.189      3.67613e+6 
        920.202      3.63878e+6 
        920.215      3.62552e+6 
        920.265       3.8242e+6 
        920.366      4.97889e+6 
        920.466      6.22529e+6 
        920.566      7.39402e+6 
        920.666       8.5053e+6 
        920.766      9.51303e+6 
        920.866      1.04455e+7 
        920.966      1.11724e+7 
        921.066      1.17351e+7 
        921.166      1.21118e+7 
        921.266        1.228e+7 
        921.367      1.22709e+7 
        921.467      1.20698e+7 
        921.567      1.16409e+7 
        921.667      1.10293e+7 
        921.767      1.02609e+7 
        921.867      9.30489e+6 
        921.967      8.30204e+6 
        922.067      7.17986e+6 
        922.167      5.95062e+6 
        922.267      4.63482e+6 
        922.331      3.78072e+6 
        922.368       3.4609e+6 
        922.405      3.35736e+6 
        922.479      3.78637e+6 
        922.627      5.79093e+6 
         922.67      6.36389e+6 
         922.74      7.22208e+6 
        922.775      7.64133e+6 
         922.81      8.06629e+6 
         922.95      9.63376e+6 
         923.09      1.11646e+7 
         923.23      1.25148e+7 
        923.371      1.36944e+7 
        923.511      1.45806e+7 
        923.651      1.52418e+7 
        923.791       1.5627e+7 
        923.931      1.57875e+7 
        924.071      1.57189e+7 
        924.211      1.53895e+7 
        924.352      1.47876e+7 
        924.492      1.39358e+7 
        924.632      1.28163e+7 
        924.772      1.15032e+7 
        924.912      1.00344e+7 
        925.052      8.45996e+6 
        925.192      6.74849e+6 
        925.333      4.77136e+6 
        925.434      3.42229e+6 
        925.462      3.27338e+6 
        925.473      3.24856e+6 
        925.484      3.24184e+6 
        925.534      3.42572e+6 
        925.634      4.76944e+6 
        925.734      6.23757e+6 
        925.834      7.53831e+6 
        925.934      8.76369e+6 
        926.034      9.94179e+6 
        926.134      1.11071e+7 
        926.232      1.21829e+7 
        926.301       1.2915e+7 
        926.335      1.32909e+7 
        926.369       1.3653e+7 
        926.505      1.49903e+7 
        926.641      1.62071e+7 
        926.777      1.72996e+7 
        926.913      1.82352e+7 
        927.049      1.90081e+7 
        927.185      1.96419e+7 
        927.322      2.01286e+7 
        927.458      2.04919e+7 
        927.594      2.07264e+7 
         927.73      2.08534e+7 
        927.866       2.0865e+7 
        928.002      2.07546e+7 
        928.006      2.07494e+7 
        928.094       2.0582e+7 
        928.138        2.047e+7 
        928.182      2.03406e+7 
        928.359      1.96487e+7 
        928.535      1.86969e+7 
        928.711      1.74492e+7 
        928.887      1.60253e+7 
        928.985      1.51763e+7 
        929.037      1.47072e+7 
        929.063      1.44642e+7 
        929.089      1.42149e+7 
        929.125      1.38581e+7 
        929.193      1.31488e+7 
        929.261      1.24343e+7 
        929.398      1.09461e+7 
        929.493      9.83397e+6 
        929.525       9.4518e+6 
        929.534      9.34662e+6 
        929.543      9.24021e+6 
        929.593      8.63511e+6 
        929.617      8.33411e+6 
        929.655      7.84817e+6 
        929.693      7.34291e+6 
        929.769      6.30229e+6 
        929.827      5.41334e+6 
        929.883      4.49804e+6 
         929.91      4.04489e+6 
        929.939      3.60897e+6 
        929.954      3.46273e+6 
        929.968      3.35745e+6 
        929.982      3.30693e+6 
        929.996       3.2818e+6 
         930.01      3.27414e+6 
        930.024      3.28271e+6 
        930.038      3.30876e+6 
        930.052      3.36025e+6 
        930.081      3.61403e+6 
        930.137      4.50907e+6 
        930.201      5.56056e+6 
        930.247       6.2699e+6 
        930.249      6.30034e+6 
        930.251      6.33075e+6 
        930.301      7.04043e+6 
        930.326      7.35868e+6 
        930.402       8.3698e+6 
        930.478      9.32261e+6 
         930.63      1.11647e+7 
        930.633      1.11998e+7 
        930.782      1.28902e+7 
        930.931      1.45436e+7 
         931.08      1.60441e+7 
        931.229      1.75018e+7 
        931.379      1.89651e+7 
        931.516      2.02093e+7 
        931.528      2.03139e+7 
        931.677      2.15335e+7 
        931.838      2.27713e+7 
        931.999      2.38767e+7 
         932.16      2.47908e+7 
        932.321      2.56045e+7 
        932.483      2.63151e+7 
        932.644      2.69375e+7 
        932.805      2.74356e+7 
        932.966      2.78255e+7 
        933.127      2.81441e+7 
        933.173      2.82217e+7 
        933.265      2.83586e+7 
        933.288      2.83889e+7 
        933.403      2.85161e+7 
        933.432      2.85377e+7 
        933.542      2.85943e+7 
        933.652      2.86064e+7 
        933.762      2.85687e+7 
        933.872      2.84817e+7 
        933.982      2.83351e+7 
        934.092      2.81228e+7 
        934.202      2.78498e+7 
        934.312      2.75141e+7 
        934.413      2.71643e+7 
        934.422      2.71329e+7 
        934.533      2.67171e+7 
        934.652      2.62006e+7 
        934.771      2.56142e+7 
         934.89      2.49801e+7 
        935.009      2.42676e+7 
        935.026      2.41592e+7 
        935.128      2.35043e+7 
         935.23      2.28492e+7 
        935.332      2.21505e+7 
        935.434      2.14255e+7 
        935.537      2.06679e+7 
        935.639      1.98638e+7 
        935.741      1.90186e+7 
        935.843      1.81226e+7 
        935.945      1.71651e+7 
         935.95      1.71167e+7 
        936.047      1.61642e+7 
        936.144        1.517e+7 
        936.338      1.30405e+7 
        936.464      1.15784e+7 
        936.532      1.07486e+7 
        936.601      9.88851e+6 
        936.645      9.32051e+6 
        936.714      8.39889e+6 
        936.737      8.08074e+6 
        936.829      6.75819e+6 
        936.887      5.79049e+6 
        936.944      4.75474e+6 
        936.973      4.20571e+6 
        937.001      3.73162e+6 
        937.015      3.59697e+6 
        937.029      3.50822e+6 
        937.043      3.47658e+6 
        937.058      3.46279e+6 
        937.072      3.46002e+6 
        937.086      3.46373e+6 
        937.101      3.47856e+6 
        937.115       3.5112e+6 
        937.143      3.73677e+6 
         937.15      3.84562e+6 
        937.186      4.49936e+6 
        937.199      4.74764e+6 
         937.25       5.6866e+6 
        937.314      6.77243e+6 
        937.341      7.18495e+6 
        937.442      8.61833e+6 
        937.543      9.97028e+6 
        937.645       1.1267e+7 
        937.746      1.24985e+7 
        937.847      1.36812e+7 
        937.896      1.42482e+7 
        937.948      1.48441e+7 
            938      1.54248e+7 
        938.104      1.65448e+7 
        938.208      1.76272e+7 
        938.312      1.86714e+7 
        938.416      1.96609e+7 
         938.52      2.06099e+7 
        938.543      2.08158e+7 
        938.556      2.09321e+7 
        938.624      2.15312e+7 
        938.729      2.24172e+7 
        938.914       2.3968e+7 
        939.093      2.54332e+7 
        939.271      2.69148e+7 
        939.449      2.83191e+7 
        939.628      2.96932e+7 
        939.807       3.1031e+7 
        939.986       3.2392e+7 
        940.164      3.36826e+7 
        940.343      3.48773e+7 
        940.521      3.59964e+7 
         940.58      3.63482e+7 
         940.66      3.68182e+7 
          940.7      3.70482e+7 
         940.74      3.72722e+7 
        940.901      3.80422e+7 
        941.061      3.87613e+7 
        941.221      3.94333e+7 
        941.381      4.00475e+7 
        941.541      4.05818e+7 
        941.701      4.10817e+7 
        942.022       4.1978e+7 
        942.342      4.27222e+7 
        942.662      4.32849e+7 
        942.917      4.36072e+7 
        942.982       4.3671e+7 
        943.048      4.37266e+7 
        943.178       4.3813e+7 
        943.438      4.38067e+7 
        943.698      4.36059e+7 
        943.828      4.34313e+7 
        943.958      4.32048e+7 
        944.088      4.29173e+7 
        944.219      4.25617e+7 
        944.349      4.21473e+7 
        944.479      4.16732e+7 
        944.609      4.11404e+7 
        944.691      4.07738e+7 
        944.739      4.05479e+7 
        944.845      4.00588e+7 
        944.999      3.92957e+7 
        945.153      3.84679e+7 
        945.308      3.75772e+7 
        945.462      3.66841e+7 
        945.616       3.5757e+7 
         945.77      3.47746e+7 
        945.924      3.37561e+7 
        946.078      3.27411e+7 
        946.232      3.16877e+7 
        946.541      2.96033e+7 
        946.695        2.854e+7 
        946.849      2.74668e+7 
        947.003       2.6352e+7 
        947.108      2.55664e+7 
        947.157      2.51927e+7 
        947.208      2.47974e+7 
        947.308      2.40054e+7 
        947.509      2.23351e+7 
        947.709      2.05352e+7 
        947.735      2.02905e+7 
        947.909      1.85579e+7 
        948.083      1.66851e+7 
        948.257      1.46561e+7 
        948.317      1.39323e+7 
        948.431      1.24961e+7 
        948.546      1.09722e+7 
         948.66      9.35384e+6 
        948.727      8.34162e+6 
        948.761      7.80727e+6 
        948.771      7.64419e+6 
        948.774      7.59458e+6 
        948.777      7.54501e+6 
        948.827      6.63127e+6 
        948.835      6.47762e+6 
        948.893      5.27615e+6 
        948.922      4.63357e+6 
        948.951      4.06871e+6 
        948.966      3.93855e+6 
         948.98      3.88442e+6 
        948.994       3.8727e+6 
        949.009      3.87025e+6 
        949.023      3.87025e+6 
        949.037      3.87129e+6 
        949.052      3.87484e+6 
        949.066       3.8876e+6 
        949.095      4.07424e+6 
        949.153      5.28875e+6 
         949.23      6.86586e+6 
        949.258      7.39085e+6 
        949.269      7.57768e+6 
         949.28       7.7609e+6 
         949.33      8.55748e+6 
         949.36       9.0197e+6 
         949.43      1.00599e+7 
          949.5      1.10603e+7 
         949.64      1.29615e+7 
        949.781      1.47404e+7 
        949.795       1.4912e+7 
        949.879      1.59385e+7 
        949.921      1.64416e+7 
        949.963       1.6937e+7 
        950.131      1.88224e+7 
        950.299      2.05876e+7 
        950.467      2.22244e+7 
        950.635      2.37746e+7 
        950.719      2.45204e+7 
        950.804      2.52499e+7 
        950.888      2.59657e+7 
        951.056      2.73612e+7 
        951.224      2.87182e+7 
        951.392      3.00522e+7 
         951.56      3.13907e+7 
        951.728      3.27241e+7 
        951.896      3.41513e+7 
        952.065      3.55729e+7 
        952.233      3.70196e+7 
        952.401      3.85015e+7 
        952.688      4.10091e+7 
        952.737      4.14703e+7 
        952.788      4.19522e+7 
        952.888      4.29006e+7 
        953.089      4.48092e+7 
        953.489      4.87717e+7 
        953.889      5.28369e+7 
         954.29      5.67095e+7 
         954.49       5.8564e+7 
         954.69      6.03783e+7 
         954.89      6.20788e+7 
         955.09       6.3577e+7 
         955.29      6.50382e+7 
        955.491      6.64642e+7 
        955.768      6.83758e+7 
        955.891      6.91782e+7 
        956.014      6.99633e+7 
         956.26      7.15143e+7 
        956.753      7.44781e+7 
        957.245      7.72577e+7 
        957.738      7.98367e+7 
        958.156       8.1852e+7 
         958.23      8.21916e+7 
        958.722      8.43266e+7 
        959.289      8.64447e+7 
        959.572      8.73828e+7 
        959.855      8.82115e+7 
        960.139      8.89297e+7 
         960.38      8.94415e+7 
        960.414      8.95065e+7 
        960.422      8.95213e+7 
         960.43       8.9536e+7 
         960.48       8.9646e+7 
         960.58      8.98527e+7 
         960.78      9.02124e+7 
         961.18       9.0699e+7 
        961.581      9.08715e+7 
        961.981      9.07125e+7 
        962.381      9.02008e+7 
        962.782       8.9335e+7 
        963.182      8.80755e+7 
        963.582      8.64642e+7 
        963.735      8.57608e+7 
        963.983      8.45136e+7 
        964.231      8.31168e+7 
        964.479      8.16088e+7 
        964.727      7.99953e+7 
        964.976      7.82502e+7 
        965.224      7.64177e+7 
        965.472      7.44799e+7 
        965.968      7.03607e+7 
        966.465      6.60133e+7 
        966.883      6.22346e+7 
        966.961      6.15215e+7 
        967.458      5.69897e+7 
        968.032      5.17668e+7 
        969.065      4.24536e+7 
        969.132      4.18498e+7 
        969.181      4.14081e+7 
        969.297      4.03597e+7 
        969.529      3.82244e+7 
        969.728      3.63605e+7 
        969.927      3.44391e+7 
        970.125      3.24325e+7 
        970.324       3.0321e+7 
        970.522      2.80663e+7 
        970.568      2.75259e+7 
        970.721      2.55946e+7 
        970.874       2.3513e+7 
        971.027       2.1252e+7 
        971.181      1.87638e+7 
        971.292      1.67832e+7 
         971.32      1.62547e+7 
        971.334      1.59871e+7 
        971.348      1.57178e+7 
        971.404      1.46119e+7 
        971.447      1.37263e+7 
        971.467       1.3308e+7 
        971.516      1.22561e+7 
        971.585      1.07019e+7 
        971.644      9.29337e+6 
        971.703      7.77572e+6 
        971.732      6.98244e+6 
        971.762      6.11945e+6 
        971.778      5.64981e+6 
        971.792      5.25881e+6 
        971.806      4.93667e+6 
        971.821      4.77952e+6 
        971.827      4.77528e+6 
        971.833      4.77553e+6 
        971.836      4.77566e+6 
        971.839      4.77582e+6 
        971.851      4.77632e+6 
        971.866      4.84537e+6 
         971.88      5.11068e+6 
         971.91      5.94886e+6 
        971.969      7.62914e+6 
        972.037      9.39694e+6 
        972.087      1.06035e+7 
        972.137      1.17507e+7 
         972.15      1.20438e+7 
        972.237      1.39237e+7 
        972.324      1.56863e+7 
        972.499      1.88648e+7 
        972.548      1.96826e+7 
        972.673      2.16253e+7 
        972.798      2.34052e+7 
        972.923      2.50333e+7 
        973.048      2.65336e+7 
        973.173      2.79243e+7 
        973.298      2.92159e+7 
        973.423      3.04493e+7 
        973.548      3.16226e+7 
        973.601      3.21064e+7 
        973.673      3.27498e+7 
        973.746      3.33813e+7 
         973.89      3.46182e+7 
        974.034       3.5806e+7 
        974.178      3.69524e+7 
        974.466      3.92209e+7 
        974.754      4.14354e+7 
        975.043      4.35786e+7 
        975.556       4.7325e+7 
        975.598      4.76184e+7 
        975.619      4.77657e+7 
         975.64      4.79137e+7 
        975.724      4.85087e+7 
        975.892      4.97242e+7 
        976.228      5.21143e+7 
        976.565      5.46336e+7 
        976.733      5.59822e+7 
        976.901      5.74101e+7 
        977.069      5.89316e+7 
        977.237      6.05705e+7 
        977.405      6.21137e+7 
        977.574       6.3632e+7 
         977.91      6.69681e+7 
        978.246      7.03029e+7 
        978.414      7.20776e+7 
        978.582      7.39741e+7 
         978.75      7.60369e+7 
        978.919      7.82831e+7 
        979.087      8.07367e+7 
        979.105      8.10138e+7 
        979.205      8.26091e+7 
        979.255      8.34442e+7 
        979.305       8.4305e+7 
        979.505      8.73875e+7 
        979.705      9.08134e+7 
        979.905      9.46587e+7 
        980.105       9.8046e+7 
        980.306      1.01176e+8 
        980.506       1.0453e+8 
        980.706      1.07896e+8 
        980.906      1.10686e+8 
        981.106       1.1358e+8 
        981.506      1.19439e+8 
        982.307      1.31094e+8 
        982.707      1.36863e+8 
        983.108      1.42759e+8 
        983.508      1.48971e+8 
        983.863      1.54872e+8 
        983.893      1.55385e+8 
        983.908      1.55642e+8 
        983.923        1.559e+8 
        983.983      1.56971e+8 
        984.103      1.59013e+8 
        984.344      1.62961e+8 
        984.824      1.70975e+8 
        984.951      1.72972e+8 
