# Koester WD models
# teff = 18000 K (value for the effective temperature for the model. Temperatures are given in K)
# logg = 8.25 log(cm/s2) (value for Log(G) for the model.)
#
# column 1: WAVELENGTH (ANGSTROM), Wavelength in Angstrom
# column 2: FLUX (ERG/CM2/S/A), Flux in erg/cm2/s/A
         899.23      2.93458e+6 
         899.55      2.94344e+6 
        901.893      3.00887e+6 
        904.235      3.07531e+6 
          908.6      3.20185e+6 
         908.92      3.21127e+6 
        909.241       3.2207e+6 
        909.731      3.23518e+6 
        909.834      3.23823e+6 
        909.881      3.23961e+6 
        909.902      3.24024e+6 
        910.032      3.24407e+6 
        910.332      3.25302e+6 
        910.934      3.27096e+6 
        910.969      3.27197e+6 
        911.501       3.2878e+6 
        911.767      3.29566e+6 
        911.901      3.29955e+6 
        912.034      3.30338e+6 
        912.167      3.38054e+6 
          912.3      3.45764e+6 
        912.433      3.53511e+6 
        912.566      3.61101e+6 
        912.699      3.68556e+6 
        912.833       3.7575e+6 
        912.966      3.82344e+6 
        913.099      3.87013e+6 
        913.181      3.88225e+6 
        913.233      3.88904e+6 
        913.284      3.89796e+6 
        913.335       3.9028e+6 
        913.387      3.90497e+6 
        913.438      3.90346e+6 
         913.44       3.9033e+6 
         913.49      3.90384e+6 
         913.54      3.90952e+6 
         913.59      3.92168e+6 
         913.64      3.92617e+6 
        913.691      3.91411e+6 
        913.741      3.88508e+6 
        913.791      3.86297e+6 
        913.841      3.86834e+6 
        913.891      3.89529e+6 
        913.941      3.92957e+6 
        913.991      3.92397e+6 
        914.041      3.86218e+6 
        914.091      3.77258e+6 
        914.141      3.71025e+6 
        914.165      3.70306e+6 
        914.191      3.71814e+6 
        914.291      3.89523e+6 
        914.391      3.92354e+6 
        914.406      3.88401e+6 
        914.491      3.60765e+6 
        914.575      3.42173e+6 
        914.745      3.94817e+6 
        914.755      3.97964e+6 
        914.913      3.75596e+6 
        915.071      3.05175e+6 
        915.229      3.82797e+6 
        915.387        4.201e+6 
        915.448      4.02438e+6 
        915.545      3.41158e+6 
        915.593      3.04598e+6 
        915.643      2.74109e+6 
        915.693      2.69197e+6 
        915.793      3.33807e+6 
        915.893        4.136e+6 
        915.993      4.57843e+6 
        916.093      4.58371e+6 
        916.193      4.14169e+6 
        916.293      3.31824e+6 
        916.343      2.83574e+6 
        916.393      2.45971e+6 
        916.443      2.38277e+6 
        916.544      3.12416e+6 
        916.644       4.1272e+6 
        916.744      4.86981e+6 
        916.844      5.27037e+6 
        916.944       5.2923e+6 
        917.044      4.91719e+6 
        917.144      4.18278e+6 
        917.244      3.17527e+6 
        917.294      2.61839e+6 
        917.344      2.20991e+6 
        917.394      2.14394e+6 
        917.495      2.97933e+6 
        917.595      4.10465e+6 
        917.695      5.04424e+6 
        917.795      5.75691e+6 
        917.895      6.19626e+6 
        917.995      6.32924e+6 
        918.095       6.1552e+6 
        918.195      5.64752e+6 
        918.295      4.90233e+6 
        918.395      3.93475e+6 
        918.496      2.72423e+6 
        918.546      2.19297e+6 
        918.596        1.957e+6 
        918.646      2.10014e+6 
        918.746      3.22393e+6 
        918.846      4.37074e+6 
        918.946      5.35921e+6 
        919.046      6.24932e+6 
        919.146      6.94308e+6 
        919.196      7.20245e+6 
        919.246      7.41011e+6 
        919.296      7.55544e+6 
        919.397      7.67369e+6 
        919.497      7.59681e+6 
        919.597      7.28674e+6 
        919.697      6.75757e+6 
        919.797      6.02765e+6 
        919.897      5.13377e+6 
        919.997      4.08822e+6 
        920.097      2.82156e+6 
        920.147      2.19637e+6 
        920.197      1.87352e+6 
        920.247      1.91954e+6 
        920.347      3.02621e+6 
        920.448       4.2595e+6 
        920.548      5.33364e+6 
        920.648      6.29892e+6 
        920.748      7.14609e+6 
        920.848      7.87698e+6 
        920.948      8.46229e+6 
        921.048      8.89259e+6 
        921.148      9.19255e+6 
        921.248      9.34219e+6 
        921.349      9.36854e+6 
        921.449      9.25758e+6 
        921.549      8.99872e+6 
        921.649      8.59452e+6 
        921.749      8.04788e+6 
        921.849      7.35943e+6 
        921.949      6.57058e+6 
        922.049      5.63021e+6 
        922.149      4.57413e+6 
        922.249      3.35506e+6 
        922.294      2.68608e+6 
         922.35      2.00828e+6 
        922.405      1.81058e+6 
        922.515      2.69223e+6 
        922.625      4.19481e+6 
         922.66      4.60074e+6 
        922.735      5.42993e+6 
         922.81      6.19572e+6 
         922.96      7.54369e+6 
         923.11      8.73448e+6 
         923.26      9.72961e+6 
        923.411      1.05357e+7 
        923.561      1.11261e+7 
        923.711      1.15129e+7 
        923.861        1.172e+7 
        924.011      1.17635e+7 
        924.161      1.16206e+7 
        924.312      1.12765e+7 
        924.462      1.07053e+7 
        924.612      9.91066e+6 
        924.762      8.96007e+6 
        924.912      7.81735e+6 
        925.062      6.50866e+6 
        925.212      4.90996e+6 
        925.241      4.54921e+6 
        925.363      2.88957e+6 
        925.484      1.82082e+6 
        925.605      2.89671e+6 
        925.726      4.57121e+6 
        925.847      5.96598e+6 
        925.968      7.16465e+6 
        926.089      8.22648e+6 
         926.21      9.20688e+6 
        926.282       9.7291e+6 
        926.332      1.00995e+7 
        926.382      1.04516e+7 
        926.482      1.11438e+7 
        926.682      1.23318e+7 
        926.882      1.32773e+7 
        927.082      1.39822e+7 
        927.283      1.45024e+7 
        927.483      1.48608e+7 
        927.683      1.50504e+7 
        927.883      1.50921e+7 
        927.984      1.50535e+7 
        928.083      1.49523e+7 
        928.182      1.47808e+7 
        928.381      1.42555e+7 
        928.579       1.3477e+7 
        928.777      1.25101e+7 
        928.861      1.20932e+7 
        928.975      1.14671e+7 
        929.089      1.07747e+7 
        929.145      1.04028e+7 
        929.203      9.99598e+6 
        929.261      9.58104e+6 
        929.378      8.68421e+6 
        929.444      8.12928e+6 
        929.494      7.69473e+6 
        929.544      7.23738e+6 
        929.644      6.23151e+6 
        929.694      5.67368e+6 
        929.705      5.54573e+6 
        929.744      5.07914e+6 
        929.794      4.41658e+6 
        929.827      3.95184e+6 
        929.883      3.08926e+6 
        929.889      2.98996e+6 
        929.939      2.17366e+6 
        929.989      1.89242e+6 
        930.039      1.90183e+6 
        930.089      2.27816e+6 
        930.139      3.12841e+6 
        930.189      3.90632e+6 
        930.239       4.6112e+6 
        930.289      5.26635e+6 
        930.301      5.41064e+6 
         930.39      6.41563e+6 
        930.478      7.31203e+6 
        930.654      8.88967e+6 
        930.729      9.50294e+6 
         930.83      1.02766e+7 
        930.931      1.10177e+7 
        931.032      1.17041e+7 
        931.133      1.23524e+7 
        931.234      1.29654e+7 
        931.335      1.36124e+7 
        931.437      1.42492e+7 
         931.44      1.42676e+7 
        931.538      1.48727e+7 
        931.639       1.5461e+7 
        931.838      1.65191e+7 
        932.037      1.74197e+7 
        932.236      1.81234e+7 
        932.436      1.87335e+7 
        932.635       1.9257e+7 
        932.834      1.96724e+7 
        933.033      1.99883e+7 
        933.061      2.00265e+7 
        933.232      2.02274e+7 
        933.265      2.02595e+7 
        933.403      2.03683e+7 
        933.432      2.03843e+7 
        933.542      2.04292e+7 
        933.652      2.04448e+7 
        933.762      2.04297e+7 
        933.872      2.03825e+7 
        933.982      2.02881e+7 
        934.092      2.01394e+7 
        934.202      1.99478e+7 
        934.312       1.9711e+7 
        934.413       1.9463e+7 
        934.422      1.94404e+7 
        934.533      1.91408e+7 
        934.652      1.87663e+7 
        934.771       1.8339e+7 
         934.89      1.78672e+7 
        935.009      1.73445e+7 
        935.026      1.72656e+7 
        935.128      1.68101e+7 
         935.23      1.63877e+7 
        935.332      1.59419e+7 
        935.434      1.54755e+7 
        935.537      1.49835e+7 
        935.639      1.44648e+7 
        935.741       1.3927e+7 
        935.746      1.38999e+7 
        935.843      1.33556e+7 
        935.945      1.27412e+7 
        936.144      1.14302e+7 
        936.343       9.9832e+6 
        936.484      8.82747e+6 
        936.542      8.30543e+6 
        936.601      7.74908e+6 
        936.605       7.7095e+6 
        936.717      6.51821e+6 
        936.829      5.12673e+6 
        936.891      4.20659e+6 
        936.941      3.36069e+6 
        936.991      2.39532e+6 
        937.041      2.02724e+6 
        937.091      2.02377e+6 
        937.141      2.23125e+6 
        937.168      2.68652e+6 
        937.191      3.14916e+6 
        937.241      4.02928e+6 
        937.314      5.13591e+6 
        937.377       5.9612e+6 
         937.46      6.93494e+6 
        937.543      7.81471e+6 
         937.71       9.3589e+6 
        937.752      9.71415e+6 
        937.876      1.06949e+7 
            938      1.16213e+7 
        938.124      1.25017e+7 
        938.248      1.33327e+7 
        938.372      1.41103e+7 
        938.496      1.48435e+7 
         938.62      1.55573e+7 
        938.745      1.62454e+7 
        938.819      1.66486e+7 
        938.869      1.69192e+7 
        938.919      1.71877e+7 
        939.019      1.77192e+7 
        939.167      1.86107e+7 
        939.219      1.89304e+7 
        939.271      1.92461e+7 
        939.375      1.98649e+7 
        939.583        2.107e+7 
        939.792      2.22262e+7 
            940      2.34182e+7 
        940.104      2.39992e+7 
        940.208      2.45658e+7 
        940.312      2.50815e+7 
        940.416      2.55875e+7 
        940.508       2.6025e+7 
        940.624      2.65652e+7 
         940.74      2.70914e+7 
        940.973      2.80385e+7 
        941.205      2.89148e+7 
        941.437      2.96765e+7 
        941.669      3.03121e+7 
        941.901      3.08871e+7 
        942.134      3.13998e+7 
        942.366      3.18284e+7 
        942.598      3.21573e+7 
        942.613      3.21756e+7 
         942.83      3.23955e+7 
        943.048      3.25296e+7 
        943.265      3.25742e+7 
        943.482      3.24891e+7 
        943.699      3.22858e+7 
        943.916      3.19591e+7 
        944.024      3.17489e+7 
        944.134      3.14885e+7 
        944.242      3.11909e+7 
        944.351      3.08593e+7 
        944.568      3.00972e+7 
        944.697      2.95842e+7 
        944.785      2.92277e+7 
        944.849      2.89756e+7 
        945.002      2.83439e+7 
        945.154      2.76691e+7 
        945.308      2.69538e+7 
        945.613      2.54576e+7 
        945.766      2.46615e+7 
        945.918      2.38628e+7 
        946.071      2.31367e+7 
        946.223      2.24014e+7 
         946.51      2.10698e+7 
        946.529      2.09825e+7 
        946.834       1.9556e+7 
        946.996       1.8781e+7 
        947.158      1.79911e+7 
         947.32       1.7177e+7 
        947.483      1.63244e+7 
        947.531      1.60633e+7 
        947.645      1.54228e+7 
        947.669      1.52843e+7 
        947.807      1.44531e+7 
        947.945      1.35467e+7 
        948.033      1.29337e+7 
        948.083       1.2571e+7 
        948.133      1.21985e+7 
        948.233      1.14234e+7 
        948.333      1.06032e+7 
        948.433      9.70576e+6 
        948.483      9.22387e+6 
        948.534      8.71415e+6 
        948.584      8.17672e+6 
        948.591       8.0989e+6 
        948.661      7.28218e+6 
        948.684      6.99689e+6 
        948.777      5.73853e+6 
        948.835      4.80136e+6 
        948.893      3.70331e+6 
        948.901      3.53828e+6 
        948.951      2.44926e+6 
        949.001      2.28299e+6 
        949.049      2.28428e+6 
        949.051      2.28446e+6 
        949.101      2.52884e+6 
        949.153      3.71251e+6 
        949.207      4.74845e+6 
        949.257      5.57897e+6 
        949.307      6.31268e+6 
        949.314        6.407e+6 
        949.407      7.59621e+6 
          949.5      8.65927e+6 
        949.687      1.04941e+7 
        949.783      1.13279e+7 
        949.873      1.20635e+7 
        949.963      1.27675e+7 
        950.143       1.4085e+7 
        950.323      1.52857e+7 
        950.503       1.6385e+7 
        950.683      1.74225e+7 
        950.814      1.81435e+7 
        950.864      1.84162e+7 
        950.914      1.86873e+7 
        951.014      1.92239e+7 
        951.214      2.02946e+7 
        951.414      2.13606e+7 
        951.614      2.24321e+7 
        951.814      2.35485e+7 
        952.015      2.47358e+7 
        952.092      2.52019e+7 
        952.215      2.59976e+7 
        952.415      2.74061e+7 
        952.738      2.97281e+7 
        952.899      3.09494e+7 
        953.061      3.21954e+7 
        953.223      3.34715e+7 
        953.385      3.48487e+7 
        953.546        3.632e+7 
        953.708      3.78188e+7 
        954.031      4.08888e+7 
        954.355      4.39562e+7 
        954.678      4.70752e+7 
        955.001      5.00289e+7 
        955.324      5.27725e+7 
        955.648       5.5445e+7 
        955.921      5.75468e+7 
        955.971      5.79071e+7 
        956.021      5.82668e+7 
        956.121      5.89928e+7 
        956.321      6.04251e+7 
        956.722      6.32183e+7 
        957.122      6.59012e+7 
        957.522      6.84481e+7 
        957.923       7.0836e+7 
        958.323      7.30537e+7 
        958.723      7.50897e+7 
        958.959      7.61777e+7 
        959.124      7.68889e+7 
        959.289      7.75549e+7 
        959.619      7.88244e+7 
        959.949      7.98913e+7 
         960.13      8.03833e+7 
         960.28       8.0737e+7 
         960.43       8.1038e+7 
         960.73       8.1765e+7 
         961.03      8.22309e+7 
        961.331      8.24316e+7 
        961.631      8.23509e+7 
        961.931      8.19865e+7 
        962.231      8.13361e+7 
        962.532      8.03984e+7 
        962.832      7.91851e+7 
        963.132      7.76781e+7 
        963.234      7.71104e+7 
        963.432      7.59329e+7 
        963.483      7.56093e+7 
        963.733      7.39484e+7 
        963.982      7.21589e+7 
        964.231      7.02203e+7 
         964.48      6.81832e+7 
        964.729      6.60614e+7 
        965.228      6.15821e+7 
        965.726      5.69335e+7 
        966.225      5.23113e+7 
        966.411      5.06161e+7 
        966.723      4.78405e+7 
        966.816       4.7013e+7 
        967.221      4.35538e+7 
        967.627      4.02777e+7 
        968.032      3.71965e+7 
        968.388      3.46009e+7 
        968.437      3.42556e+7 
        968.843      3.14784e+7 
        969.297      2.84899e+7 
        969.576      2.66732e+7 
        969.751       2.5534e+7 
        969.927      2.43855e+7 
        970.102      2.32158e+7 
        970.277       2.2016e+7 
         970.38      2.12887e+7 
        970.452       2.0769e+7 
        970.503      2.03893e+7 
        970.627       1.9448e+7 
         970.75      1.84395e+7 
        970.874      1.73718e+7 
        970.895      1.71821e+7 
        970.998      1.62183e+7 
        971.008      1.61159e+7 
        971.121      1.49559e+7 
        971.235      1.36683e+7 
        971.348      1.22147e+7 
        971.461      1.05342e+7 
        971.524       9.4676e+6 
        971.545      9.08599e+6 
        971.574      8.54042e+6 
        971.624      7.53313e+6 
        971.644      7.10719e+6 
        971.703      5.76052e+6 
        971.712       5.5434e+6 
        971.762      4.27118e+6 
        971.812      2.99555e+6 
        971.855      2.86389e+6 
        971.862      2.93171e+6 
        971.912      4.17128e+6 
        971.969      5.62845e+6 
        972.033      7.10842e+6 
        972.083      8.15947e+6 
        972.133      9.12686e+6 
        972.142      9.29321e+6 
        972.233      1.08476e+7 
        972.324      1.22035e+7 
        972.507      1.44827e+7 
         972.58      1.52757e+7 
        972.689      1.63584e+7 
        972.798      1.73488e+7 
        972.907      1.82569e+7 
        973.016      1.90985e+7 
        973.125       1.9886e+7 
        973.234      2.06269e+7 
        973.343      2.13329e+7 
        973.377      2.15478e+7 
        973.452       2.2014e+7 
        973.561      2.26724e+7 
        973.746      2.37471e+7 
         973.93      2.47955e+7 
        974.114      2.58025e+7 
        974.482      2.78123e+7 
        974.797      2.95209e+7 
        975.219      3.18388e+7 
         975.64      3.40621e+7 
        976.061      3.63649e+7 
        976.273      3.75367e+7 
        976.483      3.87751e+7 
        976.694       4.0099e+7 
        976.904      4.15378e+7 
        977.115      4.31187e+7 
        977.325      4.48324e+7 
        977.536      4.64107e+7 
        977.747      4.81352e+7 
        977.958       5.0044e+7 
        978.168      5.18498e+7 
        978.379      5.38149e+7 
        978.484      5.48714e+7 
        978.589      5.59854e+7 
        978.694      5.71729e+7 
          978.8      5.84437e+7 
        978.906      5.97977e+7 
        979.011       6.1246e+7 
        979.116       6.2802e+7 
        979.138      6.31382e+7 
        979.222      6.44806e+7 
        979.305      6.59116e+7 
        979.472      6.85062e+7 
        979.639      7.13936e+7 
        979.806      7.46414e+7 
        979.973      7.83265e+7 
         980.14      8.10839e+7 
        980.308      8.40363e+7 
        980.475      8.72301e+7 
        980.642      9.06906e+7 
        980.809      9.34721e+7 
        980.976       9.6293e+7 
         981.31      1.02331e+8 
        981.645      1.08329e+8 
        981.979       1.1477e+8 
        982.313       1.2093e+8 
        982.647      1.27349e+8 
        982.982      1.34028e+8 
        983.316       1.4105e+8 
        983.377      1.42391e+8 
         983.65      1.48745e+8 
        983.923      1.55458e+8 
        984.197      1.62294e+8 
        984.743      1.76169e+8 
        985.053      1.83675e+8 
        985.836      2.03924e+8 
        986.227      2.14499e+8 
        986.423      2.19728e+8 
        986.618      2.25032e+8 
        986.813       2.2964e+8 
         987.01       2.3257e+8 
        987.205      2.35411e+8 
        987.401      2.38193e+8 
        987.792      2.43201e+8 
        987.987      2.45546e+8 
        988.183      2.48381e+8 
        988.379      2.52783e+8 
        988.575       2.5716e+8 
         988.62       2.5817e+8 
         988.77      2.61555e+8 
        988.793      2.62062e+8 
        988.966      2.64744e+8 
        989.139      2.67226e+8 
        989.312      2.69653e+8 
        989.485      2.71927e+8 
        989.658      2.71925e+8 
        989.832      2.71593e+8 
        990.005      2.71172e+8 
        990.351      2.71187e+8 
        990.524      2.71827e+8 
        990.697      2.72395e+8 
