# Koester WD models
# teff = 19500 K (value for the effective temperature for the model. Temperatures are given in K)
# logg = 8.5 log(cm/s2) (value for Log(G) for the model.)
#
# column 1: WAVELENGTH (ANGSTROM), Wavelength in Angstrom
# column 2: FLUX (ERG/CM2/S/A), Flux in erg/cm2/s/A
         899.23      8.38362e+6 
        904.235      8.73671e+6 
         908.45       9.0415e+6 
        909.241       9.0994e+6 
        910.032      9.15746e+6 
        911.193      9.24291e+6 
        911.613      9.27367e+6 
        911.824       9.2889e+6 
        911.929      9.29648e+6 
        912.034      9.30398e+6 
        912.139      9.40272e+6 
        912.244      9.50018e+6 
        912.349      9.59606e+6 
        912.454      9.69084e+6 
        912.559      9.78427e+6 
        912.664      9.87597e+6 
         912.77      9.96532e+6 
        912.875      1.00517e+7 
        912.886      1.00605e+7 
        913.085      1.02045e+7 
        913.284      1.03183e+7 
        913.339      1.03421e+7 
        913.435      1.03798e+7 
        913.483      1.04017e+7 
        913.531      1.04225e+7 
        913.625      1.04498e+7 
        913.724      1.04613e+7 
        913.822       1.0479e+7 
        913.871      1.04937e+7 
        914.018      1.04879e+7 
        914.165      1.04085e+7 
        914.312      1.05142e+7 
        914.343      1.05168e+7 
        914.459      1.03329e+7 
        914.575       1.0132e+7 
        914.692      1.03644e+7 
        914.808      1.05138e+7 
        914.924      1.01594e+7 
        915.009      9.71054e+6 
         915.04      9.59581e+6 
        915.071      9.55833e+6 
        915.133      9.73796e+6 
        915.257      1.04218e+7 
        915.381      1.05846e+7 
        915.505      9.89589e+6 
        915.609       8.9847e+6 
        915.617      8.93177e+6 
         915.63      8.83988e+6 
        915.643      8.77064e+6 
        915.677      8.70724e+6 
        915.745       9.0755e+6 
        915.881      1.05021e+7 
        916.017      1.12074e+7 
        916.153      1.08138e+7 
        916.289      9.32403e+6 
        916.379      8.12843e+6 
        916.421      7.88065e+6 
        916.425      7.87663e+6 
        916.429      7.87629e+6 
        916.479      8.17172e+6 
         916.58      9.65543e+6 
         916.68      1.11022e+7 
         916.78      1.20769e+7 
         916.88      1.24941e+7 
         916.98      1.22249e+7 
         917.08      1.13354e+7 
         917.18      9.87409e+6 
        917.182      9.84101e+6 
         917.28      8.01813e+6 
        917.378      6.89554e+6 
        917.575      1.00292e+7 
        917.771      1.31215e+7 
        917.967      1.44129e+7 
        918.163       1.3415e+7 
        918.359      1.03862e+7 
         918.51      7.26452e+6 
        918.556      6.41457e+6 
        918.602      6.07779e+6 
        918.694      7.28359e+6 
        918.878      1.12614e+7 
        919.062      1.45536e+7 
        919.201      1.62631e+7 
        919.241      1.65978e+7 
        919.246       1.6634e+7 
        919.251      1.66691e+7 
        919.301      1.69478e+7 
        919.402      1.71485e+7 
        919.502      1.69499e+7 
        919.602      1.62507e+7 
        919.702      1.50632e+7 
        919.802      1.35846e+7 
        919.902      1.17401e+7 
        920.002      9.66564e+6 
        920.102      7.30273e+6 
        920.165       5.9268e+6 
        920.189       5.6204e+6 
        920.202      5.53253e+6 
        920.215      5.50401e+6 
        920.265      5.93261e+6 
        920.366      8.26201e+6 
        920.466      1.05274e+7 
        920.566      1.26197e+7 
        920.666      1.46026e+7 
        920.766      1.63476e+7 
        920.866      1.79448e+7 
        920.966      1.91767e+7 
        921.066      2.01185e+7 
        921.166      2.07541e+7 
        921.266      2.10465e+7 
        921.367       2.1042e+7 
        921.467      2.07132e+7 
        921.567      2.00123e+7 
        921.667      1.90069e+7 
        921.767      1.77113e+7 
        921.867      1.60913e+7 
        921.967      1.43492e+7 
        922.067      1.23584e+7 
        922.167      1.01497e+7 
        922.267       7.7597e+6 
        922.331       6.0797e+6 
        922.368       5.3928e+6 
        922.405      5.16264e+6 
        922.479      6.08825e+6 
        922.627      9.86149e+6 
         922.67      1.08766e+7 
         922.74      1.24221e+7 
        922.775      1.31613e+7 
         922.81      1.39134e+7 
         922.95      1.66257e+7 
         923.09      1.92082e+7 
         923.23      2.14322e+7 
        923.371      2.33544e+7 
        923.511      2.47995e+7 
        923.651      2.58486e+7 
        923.791      2.64555e+7 
        923.931      2.67181e+7 
        924.071      2.66235e+7 
        924.211       2.6119e+7 
        924.352      2.51851e+7 
        924.492      2.38097e+7 
        924.632      2.19819e+7 
        924.772      1.98296e+7 
        924.912      1.73549e+7 
        925.052      1.46625e+7 
        925.192      1.16301e+7 
        925.333      8.08929e+6 
        925.434      5.39613e+6 
        925.462      5.08018e+6 
        925.473       5.0307e+6 
        925.484      5.01574e+6 
        925.534      5.40128e+6 
        925.634      8.08288e+6 
        925.734      1.06988e+7 
        925.834      1.30347e+7 
        925.934      1.51845e+7 
        926.034      1.71897e+7 
        926.134      1.91582e+7 
        926.232      2.09371e+7 
        926.301      2.21347e+7 
        926.335      2.27405e+7 
        926.369      2.33264e+7 
        926.505      2.55142e+7 
        926.641      2.74484e+7 
        926.777       2.9162e+7 
        926.913      3.06332e+7 
        927.049       3.1847e+7 
        927.185      3.28507e+7 
        927.322      3.36329e+7 
        927.458      3.42239e+7 
        927.594      3.46043e+7 
         927.73      3.48164e+7 
        927.866      3.48462e+7 
        928.002      3.46844e+7 
        928.006      3.46766e+7 
        928.094      3.44121e+7 
        928.138       3.4233e+7 
        928.182      3.40256e+7 
        928.359      3.29154e+7 
        928.535      3.13724e+7 
        928.711      2.93735e+7 
        928.887      2.71396e+7 
        928.985      2.57971e+7 
        929.037      2.50433e+7 
        929.063      2.46512e+7 
        929.089      2.42498e+7 
        929.125      2.36736e+7 
        929.193      2.25314e+7 
        929.261      2.13643e+7 
        929.398      1.88925e+7 
        929.493      1.70185e+7 
        929.525      1.63701e+7 
        929.534      1.61876e+7 
        929.543      1.60037e+7 
        929.593      1.49569e+7 
        929.617      1.44378e+7 
        929.655      1.35826e+7 
        929.693      1.26905e+7 
        929.769      1.08209e+7 
        929.827      9.25011e+6 
        929.883      7.59191e+6 
         929.91      6.72935e+6 
        929.939      5.82659e+6 
        929.954      5.48978e+6 
        929.968      5.25513e+6 
        929.982      5.13082e+6 
        929.996      5.07301e+6 
         930.01      5.05668e+6 
        930.024      5.07436e+6 
        930.038      5.13355e+6 
        930.052      5.25934e+6 
        930.081      5.83435e+6 
        930.137      7.60944e+6 
        930.201      9.50621e+6 
        930.247      1.07601e+7 
        930.249      1.08135e+7 
        930.251      1.08667e+7 
        930.301      1.21404e+7 
        930.326      1.27125e+7 
        930.402      1.44925e+7 
        930.478      1.61371e+7 
         930.63      1.92517e+7 
        930.633      1.93115e+7 
        930.782      2.21066e+7 
        930.931      2.47774e+7 
         931.08      2.71894e+7 
        931.229      2.94691e+7 
        931.379      3.18027e+7 
        931.516       3.3824e+7 
        931.528      3.39952e+7 
        931.677      3.59954e+7 
        931.838      3.80221e+7 
        931.999      3.98439e+7 
         932.16      4.13462e+7 
        932.321       4.2703e+7 
        932.483      4.39019e+7 
        932.644      4.49606e+7 
        932.805      4.58145e+7 
        932.966      4.64805e+7 
        933.127      4.70227e+7 
        933.173      4.71544e+7 
        933.265      4.73862e+7 
        933.288      4.74371e+7 
        933.403      4.76492e+7 
        933.432      4.76859e+7 
        933.542      4.77817e+7 
        933.652      4.78006e+7 
        933.762      4.77349e+7 
        933.872      4.75844e+7 
        933.982      4.73275e+7 
        934.092      4.69524e+7 
        934.202       4.6473e+7 
        934.312      4.58845e+7 
        934.413      4.52773e+7 
        934.422      4.52232e+7 
        934.533      4.45073e+7 
        934.652      4.36201e+7 
        934.771      4.26188e+7 
         934.89      4.15253e+7 
        935.009      4.03082e+7 
        935.026      4.01241e+7 
        935.128      3.90249e+7 
         935.23      3.79561e+7 
        935.332      3.68242e+7 
        935.434      3.56568e+7 
        935.537      3.44403e+7 
        935.639      3.31611e+7 
        935.741      3.18259e+7 
        935.843      3.04144e+7 
        935.945      2.89099e+7 
         935.95      2.88338e+7 
        936.047      2.73236e+7 
        936.144      2.57285e+7 
        936.338      2.23039e+7 
        936.464      1.98995e+7 
        936.532      1.85098e+7 
        936.601      1.70549e+7 
        936.645      1.60809e+7 
        936.714      1.44848e+7 
        936.737      1.39272e+7 
        936.829      1.15802e+7 
        936.887      9.88069e+6 
        936.944      8.02005e+6 
        936.973      6.97003e+6 
        937.001      5.97811e+6 
        937.015      5.65556e+6 
        937.029      5.44435e+6 
        937.043      5.35472e+6 
        937.058      5.31843e+6 
        937.072      5.31115e+6 
        937.086      5.31982e+6 
        937.101      5.35764e+6 
        937.115      5.44872e+6 
        937.143      5.98596e+6 
         937.15        6.206e+6 
        937.186      7.53728e+6 
        937.199      8.00434e+6 
         937.25      9.69706e+6 
        937.314      1.16005e+7 
        937.341      1.23355e+7 
        937.442      1.48627e+7 
        937.543      1.71863e+7 
        937.645      1.93705e+7 
        937.746      2.14171e+7 
        937.847      2.33371e+7 
        937.896       2.4252e+7 
        937.948      2.52041e+7 
            938      2.61293e+7 
        938.104      2.79224e+7 
        938.208      2.96326e+7 
        938.312      3.12727e+7 
        938.416      3.28303e+7 
         938.52      3.43304e+7 
        938.543      3.46577e+7 
        938.556      3.48428e+7 
        938.729      3.72225e+7 
        938.914      3.97314e+7 
        939.271      4.47011e+7 
        939.628      4.95341e+7 
        939.986       5.4353e+7 
        940.164      5.67186e+7 
        940.343      5.89309e+7 
        940.521      6.10355e+7 
         940.58      6.17053e+7 
         940.66      6.26028e+7 
          940.7      6.30439e+7 
         940.74      6.34762e+7 
        940.901      6.50021e+7 
        941.061      6.64403e+7 
        941.221      6.77905e+7 
        941.381      6.90286e+7 
        941.541      7.00977e+7 
        941.701      7.11012e+7 
        942.022      7.29007e+7 
        942.182      7.36952e+7 
        942.342      7.43951e+7 
        942.502      7.49948e+7 
        942.662       7.5505e+7 
        942.822      7.59204e+7 
        942.917      7.61208e+7 
        942.982      7.62373e+7 
        943.048      7.63366e+7 
        943.178      7.64843e+7 
        943.308      7.65028e+7 
        943.438      7.64076e+7 
        943.568      7.62141e+7 
        943.698      7.59185e+7 
        943.828       7.5517e+7 
        943.958      7.50087e+7 
        944.088      7.43772e+7 
        944.219        7.361e+7 
        944.349       7.2725e+7 
        944.479       7.1721e+7 
        944.609      7.06032e+7 
        944.691      6.98429e+7 
        944.739      6.93774e+7 
        944.845      6.83909e+7 
        944.999      6.68694e+7 
        945.153      6.52393e+7 
        945.308       6.3513e+7 
        945.616      5.99997e+7 
        945.924      5.62304e+7 
        946.232      5.24948e+7 
        946.541      4.88719e+7 
        946.849      4.52616e+7 
        947.004      4.34039e+7 
        947.158      4.15033e+7 
        947.312      3.95445e+7 
        947.468      3.75059e+7 
        947.471      3.74654e+7 
        947.622      3.53734e+7 
        947.624       3.5352e+7 
        947.777      3.31199e+7 
         947.93      3.06968e+7 
        948.033      2.89599e+7 
        948.083      2.80802e+7 
        948.133      2.71809e+7 
        948.233      2.53037e+7 
        948.333      2.33648e+7 
        948.433      2.12843e+7 
        948.495      1.99233e+7 
        948.521      1.93338e+7 
        948.534       1.9057e+7 
        948.546      1.87779e+7 
        948.596      1.75929e+7 
        948.615      1.71329e+7 
        948.661      1.59845e+7 
        948.696      1.50749e+7 
        948.777      1.28451e+7 
        948.835      1.09843e+7 
        948.893      8.84157e+6 
        948.922      7.61211e+6 
        948.951      6.41934e+6 
        948.966      6.09629e+6 
         948.98      5.94939e+6 
        948.994      5.90651e+6 
        949.009      5.89523e+6 
        949.023      5.89341e+6 
        949.037      5.89674e+6 
        949.052      5.90962e+6 
        949.066      5.95404e+6 
        949.095      6.42764e+6 
        949.153      8.86143e+6 
         949.23      1.16547e+7 
        949.258      1.25701e+7 
        949.269      1.28972e+7 
         949.28      1.32212e+7 
         949.33      1.46179e+7 
         949.36      1.54212e+7 
         949.43       1.7219e+7 
          949.5      1.89184e+7 
         949.64      2.20893e+7 
        949.781      2.49797e+7 
        949.795      2.52549e+7 
        949.879      2.68969e+7 
        949.921      2.76936e+7 
        949.963      2.84744e+7 
        950.131      3.14511e+7 
        950.299      3.42035e+7 
        950.467      3.67566e+7 
        950.635      3.91917e+7 
        950.719       4.0377e+7 
        950.804      4.15425e+7 
        950.888      4.26911e+7 
        951.056      4.49581e+7 
        951.392      4.94339e+7 
         951.56      5.16949e+7 
        951.728      5.39836e+7 
        951.896      5.64949e+7 
        952.065      5.90465e+7 
        952.233      6.17068e+7 
        952.401      6.44925e+7 
        952.688       6.9312e+7 
        952.737       7.0202e+7 
        952.788       7.1136e+7 
        952.888      7.29886e+7 
        953.089      7.67859e+7 
        953.289      8.07015e+7 
        953.489      8.49892e+7 
        953.689      8.93752e+7 
        953.889      9.38315e+7 
         954.29      1.02652e+8 
         954.49      1.07016e+8 
         954.69      1.11344e+8 
         954.89      1.15465e+8 
         955.09      1.19142e+8 
         955.29      1.22753e+8 
        955.491       1.2631e+8 
        955.768      1.31137e+8 
        955.891       1.3316e+8 
        956.014      1.35143e+8 
         956.26      1.39095e+8 
        956.753      1.46748e+8 
        957.245      1.54018e+8 
        957.738      1.60839e+8 
        958.156      1.66215e+8 
         958.23      1.67125e+8 
        958.439      1.69642e+8 
        958.722      1.72857e+8 
        959.006      1.75829e+8 
        959.289       1.7854e+8 
        959.572      1.81063e+8 
        959.855      1.83279e+8 
        960.139      1.85177e+8 
         960.38      1.86509e+8 
        960.414      1.86675e+8 
        960.422      1.86713e+8 
         960.43      1.86751e+8 
         960.48      1.87033e+8 
         960.58      1.87561e+8 
         960.78      1.88464e+8 
         961.18      1.89604e+8 
        961.381      1.89843e+8 
        961.581      1.89838e+8 
        961.781      1.89593e+8 
        961.981      1.89108e+8 
        962.181      1.88369e+8 
        962.381      1.87365e+8 
        962.582      1.86116e+8 
        962.782      1.84618e+8 
        962.982      1.82808e+8 
        963.182      1.80762e+8 
        963.382      1.78484e+8 
        963.582      1.75948e+8 
        963.735      1.73874e+8 
        963.783      1.73193e+8 
        963.983      1.70235e+8 
        964.231      1.66217e+8 
        964.479      1.61977e+8 
        964.727      1.57484e+8 
        964.976      1.52681e+8 
        965.224      1.47708e+8 
        965.472      1.42542e+8 
        965.968      1.31828e+8 
        966.465      1.20951e+8 
        966.883      1.11861e+8 
         967.17      1.05755e+8 
        967.458      9.98169e+7 
        967.745      9.40593e+7 
        968.032      8.85304e+7 
        968.319      8.31438e+7 
        968.606      7.80111e+7 
        968.894       7.3053e+7 
        969.065      7.01775e+7 
        969.132      6.90657e+7 
        969.181      6.82546e+7 
        969.297      6.63467e+7 
        969.529        6.254e+7 
        969.927      5.60363e+7 
        970.126      5.27106e+7 
        970.324       4.9285e+7 
        970.523      4.57017e+7 
        970.568      4.48487e+7 
        970.721      4.18448e+7 
        970.874      3.86312e+7 
        971.027       3.5145e+7 
        971.181      3.12633e+7 
        971.292      2.81221e+7 
         971.32       2.7279e+7 
        971.334      2.68471e+7 
        971.348      2.64099e+7 
        971.404      2.46038e+7 
        971.447      2.31507e+7 
        971.467      2.24512e+7 
        971.516      2.06857e+7 
        971.585      1.80438e+7 
        971.644      1.56284e+7 
        971.703      1.30384e+7 
        971.732      1.16755e+7 
        971.762      1.01748e+7 
        971.778      9.33389e+6 
        971.792      8.57067e+6 
        971.806      7.84317e+6 
        971.821      7.27351e+6 
        971.827      7.20084e+6 
        971.833      7.19616e+6 
        971.836      7.19632e+6 
        971.839      7.19651e+6 
        971.851      7.20232e+6 
        971.866      7.57114e+6 
         971.88      8.25614e+6 
         971.91      9.87487e+6 
        971.969      1.27875e+7 
        972.037      1.58023e+7 
        972.087      1.78696e+7 
        972.137      1.98316e+7 
         972.15      2.03261e+7 
        972.237      2.34699e+7 
        972.324      2.63523e+7 
        972.499      3.14225e+7 
        972.548      3.27043e+7 
        972.673      3.57309e+7 
        972.798      3.84789e+7 
        972.923      4.09874e+7 
        973.048      4.33081e+7 
        973.173      4.54714e+7 
        973.298      4.75047e+7 
        973.423      4.94597e+7 
        973.548      5.13368e+7 
        973.601      5.21134e+7 
        973.673      5.31535e+7 
        973.746      5.41827e+7 
         973.89      5.62119e+7 
        974.178       6.0109e+7 
        974.445      6.37077e+7 
        974.466      6.39955e+7 
        975.043      7.17307e+7 
         975.64      7.97842e+7 
        975.939      8.39236e+7 
        976.237       8.8083e+7 
        976.387      9.02781e+7 
        976.537      9.25765e+7 
        976.686      9.50036e+7 
        976.835      9.75807e+7 
        976.984      1.00336e+8 
        977.134      1.03304e+8 
        977.432      1.09381e+8 
        977.582      1.12375e+8 
        977.732       1.1557e+8 
        977.881      1.18999e+8 
         978.03      1.22456e+8 
        978.179      1.25821e+8 
        978.329      1.29403e+8 
        978.478      1.33236e+8 
        978.627       1.3736e+8 
        978.776      1.41891e+8 
        978.927      1.46831e+8 
        979.076      1.52258e+8 
        979.145      1.54966e+8 
        979.225      1.58262e+8 
        979.305      1.61754e+8 
        979.465      1.68061e+8 
        979.625      1.75012e+8 
        979.785      1.82724e+8 
        979.945      1.91354e+8 
        980.105      1.98367e+8 
        980.266      2.05235e+8 
        980.426      2.12582e+8 
