# Koester WD models
# teff = 19250 K (value for the effective temperature for the model. Temperatures are given in K)
# logg = 8.5 log(cm/s2) (value for Log(G) for the model.)
#
# column 1: WAVELENGTH (ANGSTROM), Wavelength in Angstrom
# column 2: FLUX (ERG/CM2/S/A), Flux in erg/cm2/s/A
         899.23      7.11791e+6 
        904.235      7.42443e+6 
         908.45      7.68927e+6 
        909.241      7.73963e+6 
        910.032      7.79011e+6 
        911.193      7.86444e+6 
        911.613      7.89121e+6 
        911.824      7.90447e+6 
        911.929      7.91106e+6 
        912.034       7.9176e+6 
        912.139      8.00613e+6 
        912.244      8.09391e+6 
        912.349      8.18086e+6 
        912.454      8.26694e+6 
        912.559      8.35161e+6 
        912.664      8.43427e+6 
         912.77      8.51535e+6 
        912.875      8.59367e+6 
        912.886      8.60165e+6 
        913.085      8.73143e+6 
        913.284      8.83155e+6 
        913.339      8.85197e+6 
        913.435      8.88414e+6 
        913.483      8.90321e+6 
        913.531      8.92143e+6 
        913.625       8.9444e+6 
        913.724      8.95191e+6 
        913.822      8.96585e+6 
        913.871       8.9788e+6 
        914.018      8.97088e+6 
        914.165      8.89137e+6 
        914.312      8.99347e+6 
        914.343      8.99661e+6 
        914.459      8.81958e+6 
        914.575      8.62326e+6 
        914.692      8.85081e+6 
        914.808      8.99872e+6 
        914.924      8.66454e+6 
        915.009      8.23801e+6 
         915.04      8.13126e+6 
        915.071      8.09676e+6 
        915.133      8.26393e+6 
        915.257      8.91744e+6 
        915.381       9.0808e+6 
        915.505       8.4413e+6 
        915.609       7.5964e+6 
        915.617      7.54755e+6 
         915.63      7.46226e+6 
        915.643      7.39804e+6 
        915.677      7.33644e+6 
        915.745      7.67189e+6 
        915.881      8.98904e+6 
        916.017       9.6451e+6 
        916.153      9.28645e+6 
        916.289       7.9209e+6 
        916.379      6.83322e+6 
        916.421      6.60897e+6 
        916.425       6.6052e+6 
        916.429       6.6047e+6 
        916.479      6.86746e+6 
         916.58      8.20751e+6 
         916.68      9.52254e+6 
         916.78      1.04125e+7 
         916.88      1.07985e+7 
         916.98      1.05588e+7 
         917.08      9.75838e+6 
         917.18      8.44686e+6 
        917.182      8.41711e+6 
         917.28      6.78553e+6 
        917.378      5.78553e+6 
        917.575      8.57356e+6 
        917.771       1.1342e+7 
        917.967      1.25086e+7 
        918.163      1.16279e+7 
        918.359      8.93893e+6 
         918.51      6.16352e+6 
        918.556      5.41278e+6 
        918.602      5.12174e+6 
        918.694      6.17932e+6 
        918.878      9.70564e+6 
        919.062      1.26286e+7 
        919.201      1.41459e+7 
        919.241       1.4444e+7 
        919.246      1.44764e+7 
        919.251      1.45078e+7 
        919.301       1.4756e+7 
        919.402      1.49367e+7 
        919.502      1.47631e+7 
        919.602      1.41462e+7 
        919.702      1.31037e+7 
        919.802      1.17925e+7 
        919.902      1.01649e+7 
        920.002      8.32965e+6 
        920.102       6.2327e+6 
        920.165      5.02366e+6 
        920.189      4.76049e+6 
        920.202      4.68741e+6 
        920.215       4.6631e+6 
        920.265      5.02868e+6 
        920.366      7.08593e+6 
        920.466      9.09004e+6 
        920.566      1.09362e+7 
        920.666      1.26871e+7 
        920.766      1.42217e+7 
        920.866       1.5622e+7 
        920.966      1.67085e+7 
        921.066      1.75339e+7 
        921.166      1.80915e+7 
        921.266      1.83488e+7 
        921.367      1.83461e+7 
        921.467      1.80588e+7 
        921.567      1.74477e+7 
        921.667      1.65699e+7 
        921.767      1.54308e+7 
        921.867      1.40144e+7 
        921.967      1.24847e+7 
        922.067      1.07304e+7 
        922.167      8.77934e+6 
        922.267      6.66404e+6 
        922.331      5.17782e+6 
        922.368      4.58782e+6 
        922.405      4.39503e+6 
        922.479      5.18523e+6 
        922.627      8.52443e+6 
         922.74       1.0786e+7 
        922.775      1.14353e+7 
         922.81      1.20976e+7 
         922.88      1.33009e+7 
         923.02      1.56501e+7 
         923.16      1.77333e+7 
        923.301      1.95817e+7 
        923.441      2.10411e+7 
        923.581      2.21278e+7 
        923.721      2.28425e+7 
        923.861      2.32233e+7 
        924.001      2.33014e+7 
        924.141      2.30474e+7 
        924.282      2.24271e+7 
        924.422      2.14131e+7 
        924.562      2.00104e+7 
        924.702      1.82371e+7 
        924.842      1.62593e+7 
        924.982      1.39524e+7 
        925.122      1.14744e+7 
        925.262      8.59332e+6 
        925.322      7.24008e+6 
        925.403      5.22959e+6 
        925.484      4.28981e+6 
        925.646      7.26189e+6 
        925.808      1.08219e+7 
         925.97      1.38558e+7 
        926.132      1.66752e+7 
         926.22      1.80812e+7 
        926.295      1.92124e+7 
        926.369      2.03486e+7 
        926.517      2.24156e+7 
        926.665      2.42215e+7 
        926.813      2.57833e+7 
        926.961      2.70893e+7 
        927.109       2.8141e+7 
        927.257      2.89782e+7 
        927.406      2.96094e+7 
        927.554       3.0034e+7 
        927.702      3.02754e+7 
         927.85      3.03336e+7 
        927.998      3.01998e+7 
        928.038      3.01221e+7 
         928.11      2.99071e+7 
        928.146      2.97761e+7 
        928.182      2.96287e+7 
        928.327      2.88669e+7 
        928.471      2.78727e+7 
        928.615      2.66003e+7 
        928.717      2.55383e+7 
        928.759      2.50576e+7 
        928.903      2.34875e+7 
        928.917      2.33219e+7 
        929.089      2.11614e+7 
        929.261      1.86463e+7 
        929.325      1.76754e+7 
        929.434       1.5868e+7 
        929.543      1.39583e+7 
        929.652      1.18932e+7 
        929.719      1.05054e+7 
        929.753      9.76379e+6 
        929.755      9.71805e+6 
        929.761      9.58054e+6 
        929.769      9.39449e+6 
        929.819      8.20326e+6 
        929.827      8.00296e+6 
        929.883      6.53649e+6 
         929.91      5.77459e+6 
        929.939       4.9837e+6 
        929.954      4.69586e+6 
        929.968      4.50272e+6 
        929.982      4.40194e+6 
        929.996      4.35761e+6 
         930.01      4.34463e+6 
        930.024      4.35877e+6 
        930.038      4.40432e+6 
        930.052      4.50636e+6 
        930.081      4.99045e+6 
        930.137      6.55185e+6 
        930.201      8.23154e+6 
        930.247      9.33926e+6 
        930.249      9.38711e+6 
        930.251      9.43489e+6 
        930.301      1.05596e+7 
        930.326      1.10668e+7 
        930.402      1.26311e+7 
        930.478      1.40764e+7 
         930.63      1.67991e+7 
        930.633      1.68512e+7 
        930.782      1.92971e+7 
        930.931      2.16268e+7 
         931.08      2.37259e+7 
        931.229       2.5701e+7 
        931.379      2.77197e+7 
        931.516      2.94715e+7 
        931.528      2.96198e+7 
        931.677       3.1353e+7 
        931.838      3.31026e+7 
        931.999      3.46725e+7 
         932.16      3.59593e+7 
        932.321      3.71204e+7 
        932.483      3.81468e+7 
        932.644      3.90541e+7 
        932.805      3.97851e+7 
        932.966      4.03553e+7 
        933.127      4.08212e+7 
        933.173      4.09343e+7 
        933.265      4.11332e+7 
        933.288      4.11772e+7 
        933.403      4.13588e+7 
        933.432      4.13905e+7 
        933.542      4.14737e+7 
        933.652      4.14913e+7 
        933.762      4.14376e+7 
        933.872      4.13113e+7 
        933.982      4.10927e+7 
        934.092      4.07716e+7 
        934.202      4.03613e+7 
        934.312      3.98586e+7 
        934.413      3.93387e+7 
        934.422      3.92925e+7 
        934.533      3.86793e+7 
        934.652      3.79181e+7 
        934.771       3.7057e+7 
         934.89      3.61139e+7 
        935.009      3.50608e+7 
        935.026      3.49012e+7 
        935.128      3.39543e+7 
         935.23      3.30348e+7 
        935.332      3.20631e+7 
        935.434      3.10584e+7 
        935.537      3.00093e+7 
        935.639      2.89057e+7 
        935.741      2.77541e+7 
        935.843      2.65345e+7 
        935.945      2.52297e+7 
         935.95      2.51636e+7 
        936.047      2.38506e+7 
        936.144      2.24624e+7 
        936.338      1.94785e+7 
        936.464      1.73759e+7 
        936.532      1.61611e+7 
        936.601      1.48878e+7 
        936.645      1.40346e+7 
        936.714      1.26318e+7 
        936.737      1.21403e+7 
        936.829      1.00694e+7 
        936.887      8.56511e+6 
        936.944       6.9182e+6 
        936.973      5.99023e+6 
        937.001       5.1262e+6 
        937.015       4.8526e+6 
        937.029      4.68025e+6 
        937.043       4.6118e+6 
        937.058      4.58616e+6 
        937.072      4.58025e+6 
        937.086      4.58739e+6 
        937.101      4.61434e+6 
        937.115      4.68408e+6 
        937.143      5.13305e+6 
         937.15      5.31966e+6 
        937.186      6.49182e+6 
        937.199       6.9039e+6 
         937.25      8.40078e+6 
        937.314      1.00873e+7 
        937.341      1.07384e+7 
        937.442      1.29627e+7 
        937.543      1.50044e+7 
        937.645       1.6917e+7 
        937.746      1.87066e+7 
        937.847      2.03826e+7 
        937.896      2.11795e+7 
        937.948      2.20102e+7 
            938      2.28174e+7 
        938.104      2.43786e+7 
        938.208      2.58665e+7 
        938.312      2.72885e+7 
        938.416       2.8636e+7 
         938.52      2.99311e+7 
        938.543       3.0214e+7 
        938.556      3.03735e+7 
        938.729      3.24272e+7 
        938.914      3.45877e+7 
        939.271      3.88782e+7 
        939.628      4.30426e+7 
        939.986      4.71795e+7 
        940.164      4.92058e+7 
        940.343      5.10961e+7 
        940.521        5.289e+7 
         940.58      5.34611e+7 
         940.66      5.42277e+7 
          940.7      5.46047e+7 
         940.74      5.49738e+7 
        940.901      5.62819e+7 
        941.061      5.75163e+7 
        941.221      5.86762e+7 
        941.381      5.97361e+7 
        941.541      6.06478e+7 
        941.701      6.15033e+7 
        942.022      6.30373e+7 
        942.182      6.37146e+7 
        942.342       6.4309e+7 
        942.502      6.48167e+7 
        942.662      6.52474e+7 
        942.917      6.57639e+7 
        942.982      6.58607e+7 
        943.048      6.59423e+7 
        943.178      6.60639e+7 
        943.308      6.60765e+7 
        943.438      6.59939e+7 
        943.568      6.58274e+7 
        943.698      6.55741e+7 
        943.828      6.52311e+7 
        943.958      6.47979e+7 
        944.088      6.42581e+7 
        944.219      6.36009e+7 
        944.349      6.28441e+7 
        944.479      6.19893e+7 
        944.609      6.10386e+7 
        944.691      6.03899e+7 
        944.739      5.99928e+7 
        944.845      5.91534e+7 
        944.999      5.78634e+7 
        945.153      5.64799e+7 
        945.308      5.50105e+7 
        945.616      5.20056e+7 
        945.924      4.87732e+7 
        946.232      4.55845e+7 
        946.541      4.24894e+7 
        946.849      3.93931e+7 
        947.004      3.77956e+7 
        947.158      3.61626e+7 
        947.312      3.44765e+7 
        947.468      3.27191e+7 
        947.471      3.26842e+7 
        947.622      3.08795e+7 
        947.624      3.08612e+7 
        947.777       2.8932e+7 
         947.93      2.68257e+7 
        948.033      2.53147e+7 
        948.083       2.4549e+7 
        948.133      2.37634e+7 
        948.233      2.21266e+7 
        948.333      2.04316e+7 
        948.433      1.86112e+7 
        948.495      1.74181e+7 
        948.521      1.68993e+7 
        948.534      1.66574e+7 
        948.546      1.64143e+7 
        948.596      1.53748e+7 
        948.615      1.49697e+7 
        948.661      1.39596e+7 
        948.696      1.31592e+7 
        948.777      1.11889e+7 
        948.835      9.54171e+6 
        948.893      7.64469e+6 
        948.922      6.55757e+6 
        948.951      5.52047e+6 
        948.966      5.25177e+6 
         948.98      5.13767e+6 
        948.994      5.10763e+6 
        949.009      5.10063e+6 
        949.023      5.09987e+6 
        949.037      5.10195e+6 
        949.052      5.11037e+6 
        949.066      5.14175e+6 
        949.095      5.52773e+6 
        949.153      7.66216e+6 
         949.23      1.01347e+7 
        949.258      1.09436e+7 
        949.269       1.1235e+7 
         949.28      1.15214e+7 
         949.33      1.27537e+7 
         949.36      1.34635e+7 
         949.43      1.50463e+7 
          949.5      1.65393e+7 
         949.64      1.93182e+7 
        949.781      2.18491e+7 
        949.795      2.20892e+7 
        949.879      2.35224e+7 
        949.921      2.42172e+7 
        949.963      2.49002e+7 
        950.131      2.74926e+7 
        950.299      2.98836e+7 
        950.467      3.20929e+7 
        950.635      3.41959e+7 
        950.719      3.52182e+7 
        950.804      3.62219e+7 
        950.888      3.72134e+7 
        951.056      3.91647e+7 
        951.392      4.30137e+7 
         951.56      4.49509e+7 
        951.728      4.69103e+7 
        951.896      4.90566e+7 
        952.065      5.12372e+7 
        952.233      5.35161e+7 
        952.401      5.59065e+7 
        952.688       6.0028e+7 
        952.737      6.07838e+7 
        952.788      6.15768e+7 
        952.888      6.31495e+7 
        953.089      6.63643e+7 
        953.289      6.96761e+7 
        953.489      7.33131e+7 
        953.689      7.70262e+7 
        953.889      8.08024e+7 
         954.29      8.82781e+7 
         954.49       9.1977e+7 
         954.69      9.56555e+7 
         954.89      9.91527e+7 
         955.09      1.02274e+8 
         955.29      1.05346e+8 
        955.491      1.08362e+8 
        955.768       1.1245e+8 
        955.891       1.1416e+8 
        956.014      1.15834e+8 
         956.26      1.19173e+8 
        956.753      1.25622e+8 
        957.245      1.31751e+8 
        957.738      1.37493e+8 
        958.156      1.42015e+8 
         958.23      1.42779e+8 
        958.439      1.44897e+8 
        958.722      1.47597e+8 
        959.006      1.50093e+8 
        959.289      1.52369e+8 
        959.572      1.54489e+8 
        959.855      1.56347e+8 
        960.139       1.5794e+8 
         960.38      1.59053e+8 
        960.414      1.59192e+8 
        960.422      1.59224e+8 
         960.43      1.59256e+8 
         960.48      1.59498e+8 
         960.58      1.59949e+8 
         960.78      1.60722e+8 
         961.18      1.61699e+8 
        961.381      1.61904e+8 
        961.581        1.619e+8 
        961.781      1.61692e+8 
        961.981       1.6128e+8 
        962.181      1.60652e+8 
        962.381      1.59798e+8 
        962.582      1.58735e+8 
        962.782       1.5746e+8 
        962.982      1.55923e+8 
        963.182      1.54186e+8 
        963.382      1.52254e+8 
        963.582      1.50105e+8 
        963.735       1.4835e+8 
        963.783      1.47774e+8 
        963.983      1.45269e+8 
        964.231      1.41877e+8 
        964.479      1.38285e+8 
        964.727      1.34482e+8 
        964.976      1.30432e+8 
        965.224      1.26246e+8 
        965.472      1.21888e+8 
        965.968      1.12875e+8 
        966.465      1.03728e+8 
        966.883      9.60897e+7 
         967.17      9.09544e+7 
        967.458      8.59659e+7 
        967.745      8.11228e+7 
        968.032      7.64664e+7 
        968.319      7.19264e+7 
        968.606      6.75885e+7 
        968.894      6.33892e+7 
        969.065      6.09482e+7 
        969.132      6.00013e+7 
        969.181      5.93111e+7 
        969.297      5.76856e+7 
        969.529      5.44344e+7 
        969.927       4.8865e+7 
        970.126      4.60067e+7 
        970.324      4.30584e+7 
        970.523      3.99639e+7 
        970.568      3.92278e+7 
        970.721      3.66288e+7 
        970.874      3.38447e+7 
        971.027       3.0806e+7 
        971.181      2.74145e+7 
        971.292      2.46647e+7 
         971.32       2.3922e+7 
        971.334      2.35432e+7 
        971.348      2.31591e+7 
        971.404      2.15758e+7 
        971.447      2.02962e+7 
        971.467      1.96833e+7 
        971.516      1.81301e+7 
        971.585      1.57972e+7 
        971.644      1.36556e+7 
        971.703      1.13512e+7 
        971.732      1.01419e+7 
        971.762      8.81327e+6 
        971.778      8.06855e+6 
        971.792      7.40037e+6 
        971.806      6.76922e+6 
        971.821      6.30317e+6 
        971.827      6.25287e+6 
        971.833      6.25067e+6 
        971.836      6.25083e+6 
        971.839      6.25102e+6 
        971.851      6.25416e+6 
        971.866      6.54387e+6 
         971.88      7.12476e+6 
         971.91      8.54755e+6 
        971.969      1.11272e+7 
        972.037      1.38092e+7 
        972.087      1.56432e+7 
        972.137      1.73734e+7 
         972.15      1.78114e+7 
        972.237       2.0579e+7 
        972.324      2.31119e+7 
        972.499      2.75583e+7 
        972.548      2.86793e+7 
        972.673       3.1324e+7 
        972.798      3.37203e+7 
        972.923      3.59018e+7 
        973.048      3.79143e+7 
        973.173       3.9788e+7 
        973.298      4.15479e+7 
        973.423      4.32377e+7 
        973.548      4.48582e+7 
        973.601      4.55292e+7 
        973.673      4.64287e+7 
        973.746       4.7314e+7 
         973.89      4.90623e+7 
        974.178      5.24134e+7 
        974.445      5.54994e+7 
        974.466      5.57457e+7 
        975.043      6.23556e+7 
         975.64      6.91986e+7 
        975.939      7.27018e+7 
        976.237      7.62144e+7 
        976.387      7.80661e+7 
        976.537      8.00041e+7 
        976.686      8.20465e+7 
        976.835      8.42167e+7 
        976.984      8.65345e+7 
        977.134      8.90271e+7 
        977.432      9.41347e+7 
        977.582      9.66439e+7 
        977.732      9.93224e+7 
        977.881      1.02198e+8 
         978.03      1.05091e+8 
        978.179      1.07906e+8 
        978.329      1.10905e+8 
        978.478      1.14111e+8 
        978.627      1.17556e+8 
        978.776      1.21341e+8 
        978.927      1.25471e+8 
        979.076      1.30001e+8 
        979.145       1.3226e+8 
        979.225      1.35011e+8 
        979.305      1.37925e+8 
        979.465      1.43187e+8 
        979.625      1.48983e+8 
        979.785      1.55418e+8 
        979.945      1.62618e+8 
        980.105      1.68464e+8 
        980.266      1.74198e+8 
        980.426      1.80333e+8 
        980.586      1.86905e+8 
        980.746      1.92876e+8 
        980.906      1.98249e+8 
        981.226      2.09623e+8 
        981.867      2.32962e+8 
        982.507       2.5641e+8 
        982.827      2.68486e+8 
        983.148      2.80933e+8 
        983.468      2.94084e+8 
        983.653      3.02167e+8 
