# Koester WD models
# teff = 19250 K (value for the effective temperature for the model. Temperatures are given in K)
# logg = 8.75 log(cm/s2) (value for Log(G) for the model.)
#
# column 1: WAVELENGTH (ANGSTROM), Wavelength in Angstrom
# column 2: FLUX (ERG/CM2/S/A), Flux in erg/cm2/s/A
         899.23      7.21724e+6 
        904.235      7.52735e+6 
         908.45      7.79523e+6 
        909.241      7.84616e+6 
        910.032      7.89721e+6 
        911.193      7.97229e+6 
        911.613      7.99934e+6 
        911.824      8.01276e+6 
        911.929      8.01942e+6 
        912.034      8.02602e+6 
        912.139      8.09714e+6 
        912.244      8.16764e+6 
        912.349      8.23744e+6 
        912.454      8.30647e+6 
        912.559      8.37467e+6 
        912.664      8.44159e+6 
         912.77      8.50643e+6 
        912.875       8.5692e+6 
        912.886      8.57561e+6 
        913.037      8.65914e+6 
        913.085      8.68358e+6 
        913.284      8.77648e+6 
        913.531      8.86812e+6 
        913.649      8.89231e+6 
        913.736      8.91342e+6 
        913.779       8.9236e+6 
        913.822      8.93438e+6 
        913.994      8.93504e+6 
        914.165      8.92398e+6 
        914.336      8.95011e+6 
        914.439      8.88018e+6 
        914.507      8.80218e+6 
        914.575      8.77057e+6 
        914.712      8.89595e+6 
        914.848      8.88512e+6 
        914.897       8.7751e+6 
        914.984      8.53181e+6 
        915.071      8.38629e+6 
        915.245      8.81883e+6 
        915.419      8.84252e+6 
        915.544      8.26858e+6 
        915.594      7.98448e+6 
        915.609      7.90045e+6 
        915.643      7.77824e+6 
        915.677      7.75185e+6 
        915.745       7.9847e+6 
        915.881      8.91663e+6 
        916.017      9.40439e+6 
        916.153      9.11788e+6 
        916.289      8.06554e+6 
        916.379      7.28183e+6 
        916.421      7.13003e+6 
        916.425      7.12815e+6 
        916.429      7.12862e+6 
        916.479      7.32723e+6 
         916.58        8.342e+6 
         916.68      9.39006e+6 
         916.78      1.01008e+7 
         916.88      1.03982e+7 
         916.98      1.01866e+7 
         917.08      9.50549e+6 
         917.18      8.39267e+6 
        917.182      8.36832e+6 
         917.28      7.02686e+6 
        917.378      6.25431e+6 
        917.575      8.54403e+6 
        917.771      1.09225e+7 
        917.967       1.1895e+7 
        918.163      1.10866e+7 
        918.359      8.70567e+6 
         918.51      6.31243e+6 
        918.556      5.70268e+6 
        918.602       5.4664e+6 
        918.694      6.33144e+6 
        918.878      9.42261e+6 
        919.062       1.2017e+7 
        919.201      1.33734e+7 
        919.241      1.36387e+7 
        919.246      1.36673e+7 
        919.251       1.3695e+7 
        919.301       1.3915e+7 
        919.402      1.40677e+7 
        919.502      1.39009e+7 
        919.602       1.3331e+7 
        919.702      1.23589e+7 
        919.802      1.11851e+7 
        919.902         9.71e+6 
        920.002      8.06632e+6 
        920.102      6.23012e+6 
        920.165      5.20945e+6 
        920.189       4.9815e+6 
        920.202      4.91977e+6 
        920.215      4.89878e+6 
        920.265      5.21476e+6 
        920.366      6.96588e+6 
        920.466      8.75936e+6 
        920.566      1.04328e+7 
        920.666      1.20184e+7 
        920.766      1.34387e+7 
        920.866      1.47493e+7 
        920.966      1.57641e+7 
        921.066      1.65472e+7 
        921.166      1.70721e+7 
        921.266       1.7309e+7 
        921.367      1.73006e+7 
        921.467      1.70251e+7 
        921.567      1.64354e+7 
        921.667      1.55901e+7 
        921.767      1.45195e+7 
        921.867      1.31807e+7 
        921.967      1.17623e+7 
        922.067      1.01638e+7 
        922.167      8.40341e+6 
        922.267      6.50542e+6 
        922.331      5.22899e+6 
        922.368       4.7258e+6 
        922.405      4.55691e+6 
        922.479       5.2365e+6 
        922.627       8.1753e+6 
         922.67      8.99074e+6 
         922.74      1.02197e+7 
        922.775      1.08181e+7 
         922.81      1.14212e+7 
         922.95      1.36311e+7 
         923.09      1.57696e+7 
         923.23      1.76335e+7 
        923.371      1.92525e+7 
        923.511      2.04663e+7 
        923.651      2.13596e+7 
        923.791      2.18794e+7 
        923.931      2.21003e+7 
        924.071      2.20127e+7 
        924.211      2.15732e+7 
        924.352       2.0767e+7 
        924.492      1.96076e+7 
        924.632      1.80685e+7 
        924.772      1.62587e+7 
        924.912      1.42089e+7 
        925.052      1.19953e+7 
        925.192      9.56049e+6 
        925.333       6.7303e+6 
        925.434      4.69169e+6 
        925.462      4.45484e+6 
        925.473      4.41655e+6 
        925.484       4.4052e+6 
        925.534      4.69621e+6 
        925.634      6.72621e+6 
        925.734      8.82153e+6 
        925.834       1.0686e+7 
        925.934      1.24234e+7 
        926.034      1.40731e+7 
        926.134      1.57039e+7 
        926.232      1.71937e+7 
        926.301      1.82001e+7 
        926.335      1.87133e+7 
        926.369      1.92096e+7 
        926.505      2.10461e+7 
        926.641      2.26945e+7 
        926.777      2.41669e+7 
        926.913      2.54274e+7 
        927.049      2.64704e+7 
        927.185      2.73306e+7 
        927.322      2.79954e+7 
        927.458      2.84925e+7 
        927.594      2.88131e+7 
         927.73      2.89885e+7 
        927.866      2.90079e+7 
        928.002      2.88624e+7 
        928.006      2.88555e+7 
        928.094      2.86291e+7 
        928.138       2.8477e+7 
        928.182      2.83007e+7 
        928.359      2.73576e+7 
        928.535      2.60588e+7 
        928.711      2.43657e+7 
        928.887      2.24428e+7 
        928.985       2.1296e+7 
        929.037      2.06576e+7 
        929.063      2.03241e+7 
        929.089      1.99822e+7 
        929.125       1.9493e+7 
        929.193      1.85248e+7 
        929.261       1.7542e+7 
        929.398      1.54777e+7 
        929.493      1.39239e+7 
        929.525      1.33901e+7 
        929.534      1.32414e+7 
        929.543      1.30916e+7 
        929.593      1.22345e+7 
        929.617      1.18125e+7 
        929.655      1.11241e+7 
        929.693      1.04028e+7 
        929.769      8.91352e+6 
        929.827      7.65198e+6 
        929.883      6.33609e+6 
         929.91      5.66882e+6 
        929.939      4.99296e+6 
        929.954      4.75141e+6 
        929.968      4.57991e+6 
        929.982       4.4916e+6 
        929.996      4.44972e+6 
         930.01      4.43741e+6 
        930.024      4.45091e+6 
        930.038      4.49402e+6 
        930.052      4.58362e+6 
        930.081      4.99972e+6 
        930.137      6.35101e+6 
        930.201      7.85788e+6 
        930.247      8.86683e+6 
        930.249      8.90949e+6 
        930.251      8.95216e+6 
        930.301      9.96918e+6 
        930.326      1.04228e+7 
        930.402      1.18597e+7 
        930.478      1.32035e+7 
         930.63      1.57773e+7 
        930.633      1.58267e+7 
        930.782      1.81667e+7 
        930.931      2.04281e+7 
         931.08      2.24727e+7 
        931.229       2.4437e+7 
        931.379      2.64214e+7 
        931.516      2.81215e+7 
        931.528      2.82649e+7 
        931.677       2.9937e+7 
        931.838      3.16336e+7 
        931.999      3.31579e+7 
         932.16      3.44212e+7 
        932.321      3.55521e+7 
        932.483      3.65465e+7 
        932.644      3.74195e+7 
        932.805      3.81217e+7 
        932.966      3.86699e+7 
        933.127      3.91163e+7 
        933.173       3.9225e+7 
        933.265      3.94163e+7 
        933.288      3.94587e+7 
        933.403      3.96353e+7 
        933.432      3.96657e+7 
        933.542      3.97443e+7 
        933.652      3.97597e+7 
        933.762      3.97047e+7 
        933.872        3.958e+7 
        933.982      3.93701e+7 
        934.092      3.90663e+7 
        934.202      3.86774e+7 
        934.312      3.81993e+7 
        934.413      3.77035e+7 
        934.422      3.76592e+7 
        934.533      3.70752e+7 
        934.652      3.63504e+7 
        934.771       3.5528e+7 
         934.89      3.46379e+7 
        935.009      3.36421e+7 
        935.026      3.34913e+7 
        935.128      3.25818e+7 
         935.23      3.16826e+7 
        935.332      3.07258e+7 
        935.434      2.97371e+7 
        935.537      2.87024e+7 
        935.639      2.76121e+7 
        935.741      2.64715e+7 
        935.843      2.52603e+7 
        935.945      2.39676e+7 
         935.95      2.39023e+7 
        936.047      2.26153e+7 
        936.144       2.1257e+7 
        936.338      1.83486e+7 
        936.464      1.63314e+7 
        936.532      1.51732e+7 
        936.601      1.39742e+7 
        936.645      1.31725e+7 
        936.714       1.1877e+7 
        936.737      1.14231e+7 
        936.829      9.53998e+6 
        936.887      8.17122e+6 
        936.944      6.68839e+6 
        936.973      5.87676e+6 
        937.001      5.13726e+6 
        937.015      4.91065e+6 
        937.029      4.75826e+6 
        937.043      4.69784e+6 
        937.058      4.67296e+6 
        937.072      4.66728e+6 
        937.086      4.67422e+6 
        937.101      4.70045e+6 
        937.115      4.76212e+6 
        937.143      5.14414e+6 
         937.15      5.31407e+6 
        937.186      6.31595e+6 
        937.199      6.67708e+6 
         937.25      8.02457e+6 
        937.314      9.55852e+6 
        937.341      1.01482e+7 
        937.442      1.21844e+7 
        937.543      1.40849e+7 
        937.645      1.58922e+7 
        937.746      1.75995e+7 
        937.847      1.92244e+7 
        937.896      1.99997e+7 
        937.948      2.08094e+7 
            938      2.15988e+7 
        938.104      2.31262e+7 
        938.208      2.45869e+7 
        938.312      2.59961e+7 
        938.416      2.73323e+7 
         938.52      2.86133e+7 
        938.543      2.88922e+7 
        938.556      2.90498e+7 
        938.624      2.98632e+7 
        938.729      3.10718e+7 
        938.914      3.31925e+7 
        939.271      3.72913e+7 
        939.628      4.12152e+7 
        939.807      4.31218e+7 
        939.986      4.50815e+7 
        940.164      4.69561e+7 
        940.343       4.8701e+7 
        940.521        5.035e+7 
         940.58      5.08702e+7 
         940.66       5.1567e+7 
          940.7      5.19085e+7 
         940.74      5.22422e+7 
        940.901      5.34033e+7 
        941.061       5.4489e+7 
        941.221      5.55057e+7 
        941.381      5.64368e+7 
        941.541      5.72464e+7 
        941.701       5.8002e+7 
        942.022       5.9356e+7 
        942.342      6.04804e+7 
        942.662      6.13264e+7 
        942.917      6.18042e+7 
        942.982      6.18969e+7 
        943.048      6.19767e+7 
        943.178      6.20983e+7 
        943.308      6.21234e+7 
        943.438      6.20644e+7 
        943.568      6.19334e+7 
        943.698       6.1727e+7 
        943.828      6.14423e+7 
        943.958      6.10785e+7 
        944.088      6.06224e+7 
        944.219      6.00641e+7 
        944.349      5.94169e+7 
        944.479      5.86799e+7 
        944.609      5.78527e+7 
        944.691       5.7286e+7 
        944.739      5.69389e+7 
        944.845      5.61943e+7 
        944.999      5.50413e+7 
        945.153      5.37947e+7 
        945.308      5.24665e+7 
        945.616      4.97622e+7 
        945.924      4.68236e+7 
        946.232      4.38422e+7 
         946.54      4.08976e+7 
        946.849       3.7908e+7 
        947.004      3.63605e+7 
        947.158      3.47624e+7 
        947.312       3.3103e+7 
        947.468      3.13637e+7 
        947.471      3.13291e+7 
        947.622      2.95366e+7 
        947.624      2.95184e+7 
        947.777      2.75972e+7 
         947.93      2.55127e+7 
        948.033      2.40258e+7 
        948.083      2.32723e+7 
        948.133      2.25028e+7 
        948.233       2.0904e+7 
        948.333      1.92573e+7 
        948.433      1.75144e+7 
        948.495      1.63793e+7 
        948.521      1.58915e+7 
        948.534      1.56636e+7 
        948.546      1.54347e+7 
        948.596      1.44559e+7 
        948.615      1.40799e+7 
        948.661      1.31467e+7 
        948.696      1.24051e+7 
        948.777      1.06054e+7 
        948.835      9.10192e+6 
        948.893      7.38884e+6 
        948.922      6.43822e+6 
        948.951      5.55192e+6 
        948.966      5.32654e+6 
         948.98      5.22654e+6 
        948.994      5.20018e+6 
        949.009      5.19337e+6 
        949.023      5.19268e+6 
        949.037      5.19472e+6 
        949.052      5.20298e+6 
        949.066      5.23069e+6 
        949.095      5.55921e+6 
        949.153      7.40577e+6 
         949.23      9.64802e+6 
        949.258      1.03874e+7 
        949.269      1.06494e+7 
         949.28      1.09097e+7 
         949.33      1.20379e+7 
         949.36      1.26887e+7 
         949.43      1.41533e+7 
          949.5      1.55532e+7 
         949.64      1.81903e+7 
        949.781      2.06275e+7 
        949.795      2.08616e+7 
        949.879       2.2259e+7 
        949.921      2.29395e+7 
        949.963      2.36081e+7 
        950.131      2.61578e+7 
        950.299      2.85286e+7 
        950.467      3.07252e+7 
        950.635      3.28146e+7 
        950.719      3.38252e+7 
        950.804      3.48173e+7 
        950.888      3.57909e+7 
        951.056      3.77019e+7 
        951.392      4.14247e+7 
         951.56      4.32927e+7 
        951.728      4.51695e+7 
        951.896      4.71996e+7 
        952.065      4.92404e+7 
        952.233      5.13418e+7 
        952.401      5.35139e+7 
        952.688      5.72263e+7 
        952.737      5.79121e+7 
        952.788      5.86287e+7 
        952.888      6.00465e+7 
        953.089      6.29286e+7 
        953.289       6.5871e+7 
        953.489       6.9028e+7 
        953.889      7.54334e+7 
         954.29      8.16654e+7 
         954.49      8.46983e+7 
         954.69      8.76803e+7 
         954.89      9.05002e+7 
         955.09       9.2999e+7 
         955.29      9.54457e+7 
        955.491      9.78436e+7 
        955.768       1.0108e+8 
        955.891      1.02439e+8 
        956.014       1.0377e+8 
         956.26      1.06413e+8 
        956.753      1.11494e+8 
        957.245      1.16288e+8 
        957.738      1.20765e+8 
        958.156       1.2428e+8 
         958.23      1.24873e+8 
        958.722      1.28605e+8 
        959.289       1.3231e+8 
        959.572      1.33952e+8 
        959.855      1.35399e+8 
        960.139      1.36645e+8 
         960.38      1.37527e+8 
        960.414      1.37638e+8 
        960.422      1.37663e+8 
         960.43      1.37688e+8 
         960.48      1.37876e+8 
         960.58      1.38227e+8 
         960.78      1.38834e+8 
         961.18       1.3963e+8 
        961.581      1.39857e+8 
        961.981       1.3948e+8 
        962.381      1.38468e+8 
        962.582      1.37722e+8 
        962.782      1.36819e+8 
        962.982      1.35716e+8 
        963.182      1.34463e+8 
        963.582      1.31488e+8 
        963.735      1.30198e+8 
        963.983       1.2792e+8 
        964.231      1.25389e+8 
        964.479      1.22682e+8 
        964.727      1.19796e+8 
        964.976      1.16698e+8 
        965.224      1.13464e+8 
        965.472      1.10075e+8 
        965.968      1.02961e+8 
        966.465      9.56002e+7 
        966.961      8.81515e+7 
        967.876        7.478e+7 
        967.954      7.36823e+7 
        968.032      7.25812e+7 
        968.188      7.03739e+7 
          968.5      6.60806e+7 
        968.813      6.18935e+7 
        968.953      6.00427e+7 
        969.125      5.77824e+7 
        969.297      5.55314e+7 
        969.356      5.47573e+7 
        969.641      5.09965e+7 
        969.927      4.71569e+7 
        970.069      4.51786e+7 
        970.212      4.31488e+7 
        970.354      4.10462e+7 
        970.497      3.88536e+7 
        970.639      3.65446e+7 
         970.69      3.56772e+7 
        970.782      3.40524e+7 
        970.874      3.23571e+7 
        971.058      2.86952e+7 
        971.137      2.69773e+7 
        971.243      2.45321e+7 
        971.348      2.18691e+7 
        971.453      1.89628e+7 
        971.531       1.6634e+7 
        971.558      1.57948e+7 
        971.575      1.52512e+7 
        971.585      1.49279e+7 
        971.639      1.31338e+7 
        971.644      1.29613e+7 
        971.703      1.08514e+7 
        971.732      9.73891e+6 
        971.762      8.52974e+6 
        971.778      7.85203e+6 
        971.792      7.26047e+6 
        971.806      6.72672e+6 
        971.821      6.38529e+6 
        971.827      6.36166e+6 
        971.833      6.36141e+6 
        971.836       6.3616e+6 
        971.839      6.36176e+6 
        971.851      6.36298e+6 
        971.866      6.55057e+6 
         971.88      7.02671e+6 
         971.91      8.28834e+6 
        971.969      1.06481e+7 
        972.037      1.31045e+7 
        972.087      1.47879e+7 
        972.137      1.63932e+7 
         972.15      1.67991e+7 
        972.237      1.94026e+7 
        972.324      2.18223e+7 
        972.499       2.6135e+7 
        972.548      2.72328e+7 
        972.673       2.9845e+7 
        972.798      3.22167e+7 
        972.923      3.43907e+7 
        973.048      3.63941e+7 
        973.173      3.82549e+7 
        973.298      3.99947e+7 
        973.423      4.16607e+7 
        973.548      4.32538e+7 
        973.601        4.391e+7 
        973.673      4.47881e+7 
        973.746      4.56499e+7 
         973.89      4.73447e+7 
        974.178      5.05737e+7 
        974.466      5.37511e+7 
        975.043      5.99564e+7 
        975.556       6.5407e+7 
        975.598      6.58393e+7 
        975.619      6.60567e+7 
         975.64      6.62747e+7 
        975.724      6.71541e+7 
        975.892      6.89573e+7 
        976.228      7.25469e+7 
        976.397      7.44199e+7 
        976.565      7.63834e+7 
        976.733      7.84562e+7 
        976.901      8.06673e+7 
        977.069      8.30433e+7 
        977.237      8.56178e+7 
        977.405      8.80645e+7 
        977.574      9.04867e+7 
        977.742      9.30741e+7 
         977.91      9.58619e+7 
        978.078      9.85675e+7 
        978.246      1.01301e+8 
        978.414      1.04225e+8 
        978.582      1.07369e+8 
         978.75       1.1081e+8 
        978.919      1.14592e+8 
        979.087      1.18755e+8 
        979.105      1.19227e+8 
        979.205       1.2195e+8 
        979.255      1.23381e+8 
        979.305      1.24862e+8 
        979.505       1.3019e+8 
        979.705      1.36159e+8 
        979.905      1.42929e+8 
        980.105      1.48943e+8 
        980.306      1.54528e+8 
        980.506       1.6057e+8 
        980.706      1.66675e+8 
        980.906      1.71751e+8 
        981.106      1.77045e+8 
        981.506      1.87859e+8 
        982.307      2.09644e+8 
        982.707      2.20557e+8 
        983.108      2.31784e+8 
        983.508      2.43715e+8 
        983.863      2.55118e+8 
        983.893      2.56112e+8 
        983.908       2.5661e+8 
        983.923      2.57109e+8 
