# Koester WD models
# teff = 19750 K (value for the effective temperature for the model. Temperatures are given in K)
# logg = 8.5 log(cm/s2) (value for Log(G) for the model.)
#
# column 1: WAVELENGTH (ANGSTROM), Wavelength in Angstrom
# column 2: FLUX (ERG/CM2/S/A), Flux in erg/cm2/s/A
         899.23      9.84098e+6 
        904.235      1.02468e+7 
         908.45      1.05968e+7 
        909.241      1.06632e+7 
        910.032      1.07299e+7 
        911.193      1.08279e+7 
        911.613      1.08632e+7 
        911.824      1.08807e+7 
        911.929      1.08893e+7 
        912.034      1.08979e+7 
        912.139      1.10064e+7 
        912.244      1.11137e+7 
        912.349      1.12193e+7 
        912.454      1.13238e+7 
        912.559      1.14266e+7 
        912.664      1.15278e+7 
         912.77      1.16268e+7 
        912.875      1.17224e+7 
        912.886      1.17322e+7 
        913.085      1.18926e+7 
        913.284      1.20205e+7 
        913.339      1.20478e+7 
        913.435      1.20911e+7 
        913.483      1.21157e+7 
        913.531      1.21392e+7 
        913.625      1.21712e+7 
        913.724      1.21874e+7 
        913.822      1.22092e+7 
        913.871      1.22257e+7 
        914.018      1.22239e+7 
        914.165      1.21455e+7 
        914.312       1.2255e+7 
        914.343      1.22571e+7 
        914.459      1.20664e+7 
        914.575      1.18577e+7 
        914.692      1.20986e+7 
        914.808      1.22487e+7 
        914.924      1.18722e+7 
        915.009      1.14032e+7 
         915.04      1.12825e+7 
        915.071       1.1243e+7 
        915.133      1.14318e+7 
        915.257      1.21457e+7 
        915.381       1.2303e+7 
        915.505      1.15664e+7 
        915.609      1.05902e+7 
        915.617      1.05327e+7 
         915.63      1.04329e+7 
        915.643      1.03586e+7 
        915.677      1.02938e+7 
        915.745      1.06983e+7 
        915.881      1.22358e+7 
        916.017      1.29902e+7 
        916.153      1.25606e+7 
        916.289      1.09447e+7 
        916.379      9.63881e+6 
        916.421      9.36729e+6 
        916.425      9.36305e+6 
        916.429      9.36289e+6 
        916.479      9.69294e+6 
         916.58      1.13284e+7 
         916.68      1.29099e+7 
         916.78      1.39693e+7 
         916.88      1.44193e+7 
         916.98      1.41176e+7 
         917.08       1.3134e+7 
         917.18      1.15153e+7 
        917.182      1.14789e+7 
         917.28      9.45588e+6 
        917.378      8.19827e+6 
        917.575      1.17043e+7 
        917.771      1.51414e+7 
        917.967      1.65613e+7 
        918.163      1.54329e+7 
        918.359      1.20391e+7 
         918.51      8.54067e+6 
        918.556      7.58343e+6 
        918.602       7.1978e+6 
        918.694      8.56382e+6 
        918.878      1.30381e+7 
        919.062      1.67263e+7 
        919.201      1.86422e+7 
        919.241      1.90168e+7 
        919.246      1.90574e+7 
        919.251      1.90965e+7 
        919.301      1.94087e+7 
        919.402      1.96314e+7 
        919.502       1.9404e+7 
        919.602      1.86128e+7 
        919.702      1.72661e+7 
        919.802      1.56048e+7 
        919.902      1.35233e+7 
        920.002      1.11907e+7 
        920.102       8.5385e+6 
        920.165      6.97836e+6 
        920.189      6.62317e+6 
        920.202      6.52195e+6 
        920.215       6.4878e+6 
        920.265      6.98514e+6 
        920.366      9.61488e+6 
        920.466      1.21625e+7 
        920.566      1.45247e+7 
        920.666       1.6761e+7 
        920.766      1.87371e+7 
        920.866      2.05484e+7 
        920.966      2.19445e+7 
        921.066      2.30163e+7 
        921.166      2.37386e+7 
        921.266      2.40671e+7 
        921.367      2.40604e+7 
        921.467      2.36876e+7 
        921.567      2.28861e+7 
        921.667      2.17375e+7 
        921.767      2.02683e+7 
        921.867       1.8423e+7 
        921.967      1.64479e+7 
        922.067      1.41965e+7 
        922.167      1.17024e+7 
        922.267       9.0137e+6 
        922.331      7.12095e+6 
        922.368      6.32666e+6 
        922.405      6.05743e+6 
        922.479      7.13082e+6 
        922.627        1.138e+7 
         922.67       1.2526e+7 
         922.74      1.42696e+7 
        922.775      1.51084e+7 
         922.81      1.59564e+7 
         922.95       1.9033e+7 
         923.09      2.19719e+7 
         923.23      2.45087e+7 
        923.371      2.67064e+7 
        923.511      2.83579e+7 
        923.651       2.9559e+7 
        923.791      3.02589e+7 
        923.931      3.05594e+7 
        924.071      3.04472e+7 
        924.211      2.98615e+7 
        924.352      2.87861e+7 
        924.492      2.72137e+7 
        924.632       2.5123e+7 
        924.772      2.26648e+7 
        924.912      1.98486e+7 
        925.052      1.67857e+7 
        925.192       1.3357e+7 
        925.333      9.36345e+6 
        925.434      6.31225e+6 
        925.462      5.93673e+6 
        925.473      5.87428e+6 
        925.484      5.85565e+6 
        925.534      6.31815e+6 
        925.634      9.35689e+6 
        925.734      1.23059e+7 
        925.834      1.49411e+7 
        925.934      1.73759e+7 
        926.034      1.96576e+7 
        926.134       2.1898e+7 
        926.232       2.3929e+7 
        926.301      2.52953e+7 
        926.335      2.59906e+7 
        926.369      2.66609e+7 
        926.505        2.916e+7 
        926.641      3.13806e+7 
        926.777      3.33593e+7 
        926.913      3.50614e+7 
        927.049      3.64701e+7 
        927.185      3.76344e+7 
        927.322      3.85401e+7 
        927.458      3.92228e+7 
        927.594      3.96632e+7 
         927.73      3.99064e+7 
        927.866      3.99372e+7 
        928.002      3.97443e+7 
        928.006      3.97349e+7 
        928.094      3.94257e+7 
        928.138      3.92178e+7 
        928.182      3.89771e+7 
        928.359      3.76897e+7 
        928.535      3.59119e+7 
        928.711      3.36066e+7 
        928.887      3.10238e+7 
        928.985      2.94821e+7 
        929.037      2.86175e+7 
        929.063       2.8168e+7 
        929.089      2.77065e+7 
        929.125      2.70465e+7 
        929.193      2.57379e+7 
        929.261      2.44046e+7 
        929.398      2.15882e+7 
        929.493      1.94514e+7 
        929.525      1.87126e+7 
        929.534      1.85062e+7 
        929.543      1.82975e+7 
        929.593      1.71074e+7 
        929.617      1.65178e+7 
        929.655      1.55509e+7 
        929.693      1.45389e+7 
        929.769      1.24318e+7 
        929.827      1.06615e+7 
        929.883       8.7964e+6 
         929.91      7.82238e+6 
        929.939      6.79665e+6 
        929.954      6.40621e+6 
        929.968      6.12626e+6 
        929.982      5.97543e+6 
        929.996      5.90208e+6 
         930.01      5.88053e+6 
        930.024      5.90365e+6 
        930.038      5.97855e+6 
        930.052      6.13107e+6 
        930.081      6.80554e+6 
        930.137      8.81635e+6 
        930.201      1.09511e+7 
        930.247      1.23624e+7 
        930.249      1.24229e+7 
        930.251      1.24835e+7 
        930.301      1.39215e+7 
        930.326      1.45628e+7 
        930.402      1.65796e+7 
        930.478      1.84477e+7 
         930.63      2.19932e+7 
        930.633      2.20608e+7 
        930.782      2.52482e+7 
        930.931      2.83039e+7 
         931.08      3.10656e+7 
        931.229      3.37002e+7 
        931.379      3.63903e+7 
        931.516      3.87179e+7 
        931.528      3.89146e+7 
        931.677      4.12193e+7 
        931.838      4.35616e+7 
        931.999      4.56731e+7 
         932.16      4.74261e+7 
        932.321      4.90038e+7 
        932.483      5.03993e+7 
        932.644      5.16327e+7 
        932.805      5.26251e+7 
        932.966      5.33998e+7 
        933.127      5.40326e+7 
        933.173      5.41868e+7 
        933.265      5.44576e+7 
        933.288      5.45173e+7 
        933.403      5.47655e+7 
        933.432      5.48082e+7 
        933.542      5.49188e+7 
        933.652      5.49389e+7 
        933.762      5.48594e+7 
        933.872      5.46797e+7 
        933.982      5.43766e+7 
        934.092      5.39377e+7 
        934.202      5.33782e+7 
        934.312      5.26933e+7 
        934.413      5.19861e+7 
        934.422       5.1923e+7 
        934.533      5.10895e+7 
        934.652      5.00581e+7 
        934.771      4.88951e+7 
         934.89      4.76328e+7 
        935.009      4.62251e+7 
        935.026      4.60124e+7 
        935.128      4.47435e+7 
         935.23      4.34994e+7 
        935.332      4.21866e+7 
        935.434      4.08322e+7 
        935.537      3.94229e+7 
        935.639      3.79426e+7 
        935.741      3.63988e+7 
        935.843      3.47686e+7 
        935.945      3.30323e+7 
         935.95      3.29446e+7 
        936.047      3.12126e+7 
        936.144      2.93833e+7 
        936.338      2.54626e+7 
        936.464      2.27218e+7 
        936.532      2.11351e+7 
        936.601      1.94824e+7 
        936.645       1.8375e+7 
        936.714      1.65665e+7 
        936.737      1.59317e+7 
        936.829      1.32836e+7 
        936.887      1.13683e+7 
        936.944      9.27348e+6 
        936.973       8.0896e+6 
        937.001      6.95769e+6 
        937.015      6.58186e+6 
        937.029      6.32509e+6 
        937.043       6.2119e+6 
        937.058      6.16346e+6 
        937.072      6.15224e+6 
        937.086      6.16503e+6 
        937.101      6.21523e+6 
        937.115      6.33009e+6 
        937.143      6.96664e+6 
         937.15      7.22337e+6 
        937.186      8.72706e+6 
        937.199      9.25557e+6 
         937.25       1.1161e+7 
        937.314      1.33064e+7 
        937.341       1.4134e+7 
        937.442      1.69933e+7 
        937.543      1.96299e+7 
        937.645      2.21136e+7 
        937.746      2.44431e+7 
        937.847       2.6639e+7 
        937.896      2.76846e+7 
        937.948      2.87741e+7 
            938      2.98346e+7 
        938.104      3.18897e+7 
        938.208      3.38513e+7 
        938.312      3.57428e+7 
        938.416      3.75414e+7 
         938.52      3.92743e+7 
        938.543      3.96529e+7 
        938.556      3.98662e+7 
        938.729      4.26188e+7 
        938.914       4.5528e+7 
        939.271      5.12724e+7 
        939.628      5.68682e+7 
        939.986      6.24762e+7 
        940.164      6.52333e+7 
        940.343      6.78213e+7 
        940.521       7.0284e+7 
         940.58      7.10682e+7 
         940.66        7.212e+7 
          940.7      7.26371e+7 
         940.74      7.31435e+7 
        940.901      7.49166e+7 
        941.061      7.65898e+7 
        941.221      7.81622e+7 
        941.381      7.96048e+7 
        941.541      8.08555e+7 
        941.701      8.20298e+7 
        942.022      8.41422e+7 
        942.182       8.5074e+7 
        942.342      8.58968e+7 
        942.502      8.66027e+7 
        942.662       8.7205e+7 
        942.822      8.76976e+7 
        942.917       8.7936e+7 
        942.982      8.80761e+7 
        943.048      8.81952e+7 
        943.178      8.83746e+7 
        943.308      8.84003e+7 
        943.438      8.82926e+7 
        943.568      8.80705e+7 
        943.698      8.77287e+7 
        943.828      8.72628e+7 
        943.958       8.6669e+7 
        944.088      8.59298e+7 
        944.219      8.50297e+7 
        944.349      8.39917e+7 
        944.479       8.2818e+7 
        944.609      8.15121e+7 
        944.691      8.06199e+7 
        944.739      8.00742e+7 
        944.845      7.89112e+7 
        944.999      7.71214e+7 
        945.153      7.52044e+7 
        945.308       7.3174e+7 
        945.616      6.90682e+7 
        945.924      6.46775e+7 
        946.232      6.03145e+7 
        946.541      5.60821e+7 
        946.849       5.1879e+7 
        947.004      4.97198e+7 
        947.158      4.75144e+7 
        947.312      4.52443e+7 
        947.468      4.28818e+7 
        947.471       4.2835e+7 
        947.622      4.04147e+7 
        947.624      4.03902e+7 
        947.777      3.78141e+7 
         947.93      3.50262e+7 
        948.033      3.30338e+7 
        948.083      3.20263e+7 
        948.133      3.09959e+7 
        948.233       2.8851e+7 
        948.333      2.66347e+7 
        948.433       2.4269e+7 
        948.495      2.27208e+7 
        948.521      2.20508e+7 
        948.534      2.17379e+7 
        948.546       2.1422e+7 
        948.596      2.00758e+7 
        948.615      1.95524e+7 
        948.661      1.82563e+7 
        948.696      1.72253e+7 
        948.777      1.47077e+7 
        948.835      1.26127e+7 
        948.893      1.01991e+7 
        948.922      8.81509e+6 
        948.951      7.45406e+6 
        948.966      7.06943e+6 
         948.98      6.88285e+6 
        948.994       6.8241e+6 
        949.009      6.80595e+6 
        949.023      6.80356e+6 
        949.037      6.80764e+6 
        949.052      6.82765e+6 
        949.066      6.88813e+6 
        949.095      7.46351e+6 
        949.153      1.02215e+7 
         949.23      1.33667e+7 
        949.258      1.43979e+7 
        949.269      1.47663e+7 
         949.28      1.51294e+7 
         949.33      1.67051e+7 
         949.36      1.76145e+7 
         949.43      1.96487e+7 
          949.5      2.15794e+7 
         949.64      2.51832e+7 
        949.781      2.84734e+7 
        949.795      2.87877e+7 
        949.879      3.06635e+7 
        949.921      3.15733e+7 
        949.963      3.24677e+7 
        950.131      3.58786e+7 
        950.299      3.90425e+7 
        950.467      4.19886e+7 
        950.635      4.48041e+7 
        950.719      4.61761e+7 
        950.804      4.75238e+7 
        950.888      4.88555e+7 
        951.056      5.14825e+7 
        951.392      5.66756e+7 
         951.56      5.93114e+7 
        951.728       6.1983e+7 
        951.896      6.49125e+7 
        952.065      6.78889e+7 
        952.233      7.09925e+7 
        952.401      7.42412e+7 
        952.688      7.98706e+7 
        952.737      8.09161e+7 
        952.788      8.20147e+7 
        952.888      8.41966e+7 
        953.089      8.86711e+7 
        953.289      9.32978e+7 
        953.489       9.8345e+7 
        953.689      1.03509e+8 
        953.889      1.08767e+8 
         954.29       1.1915e+8 
         954.49      1.24274e+8 
         954.69      1.29367e+8 
         954.89      1.34207e+8 
         955.09      1.38517e+8 
         955.29      1.42767e+8 
        955.491      1.46955e+8 
        955.768      1.52621e+8 
        955.891      1.55012e+8 
        956.014      1.57358e+8 
         956.26      1.62035e+8 
        956.753      1.71076e+8 
        957.245      1.79679e+8 
        957.738       1.8776e+8 
        958.156      1.94127e+8 
         958.23      1.95204e+8 
        958.439      1.98187e+8 
        958.722         2.02e+8 
        959.006      2.05529e+8 
        959.289      2.08752e+8 
        959.572      2.11741e+8 
        959.855      2.14369e+8 
        960.139      2.16626e+8 
         960.38      2.18211e+8 
        960.414      2.18409e+8 
        960.422      2.18455e+8 
         960.43        2.185e+8 
         960.48      2.18829e+8 
         960.58      2.19443e+8 
         960.78      2.20494e+8 
         961.18      2.21822e+8 
        961.381        2.221e+8 
        961.581      2.22093e+8 
        961.781      2.21807e+8 
        961.981      2.21241e+8 
        962.181      2.20378e+8 
        962.381        2.192e+8 
        962.582      2.17734e+8 
        962.782      2.15973e+8 
        962.982      2.13849e+8 
        963.182      2.11446e+8 
        963.382      2.08766e+8 
        963.582      2.05782e+8 
        963.735      2.03341e+8 
        963.783       2.0254e+8 
        963.983      1.99052e+8 
        964.231      1.94318e+8 
        964.479      1.89313e+8 
        964.727         1.84e+8 
        964.976      1.78331e+8 
        965.224      1.72455e+8 
        965.472      1.66328e+8 
        965.968      1.53642e+8 
        966.465      1.40746e+8 
        966.883       1.2996e+8 
         967.17      1.22715e+8 
        967.458      1.15676e+8 
        967.745      1.08856e+8 
        968.032      1.02303e+8 
        968.319      9.59295e+7 
        968.606      8.98646e+7 
        968.894       8.4021e+7 
        969.065      8.06393e+7 
        969.132      7.93315e+7 
        969.181      7.83809e+7 
        969.297       7.6145e+7 
        969.529      7.16937e+7 
        969.927      6.41111e+7 
        970.126      6.02504e+7 
        970.324      5.62804e+7 
        970.523      5.21328e+7 
        970.568      5.11486e+7 
        970.721      4.76812e+7 
        970.874      4.39823e+7 
        971.027      3.99843e+7 
        971.181       3.5549e+7 
        971.292      3.19682e+7 
         971.32      3.10099e+7 
        971.334       3.0522e+7 
        971.348      3.00265e+7 
        971.404      2.79738e+7 
        971.447      2.63273e+7 
        971.467       2.5538e+7 
        971.516      2.35367e+7 
        971.585      2.05578e+7 
        971.644      1.78404e+7 
        971.703      1.49344e+7 
        971.732      1.34064e+7 
        971.762      1.17194e+7 
        971.778      1.07698e+7 
        971.792      9.90814e+6 
        971.806      9.06868e+6 
        971.821      8.38614e+6 
        971.827      8.28397e+6 
        971.833       8.2747e+6 
        971.836      8.27489e+6 
        971.839      8.27511e+6 
        971.851      8.28564e+6 
        971.866      8.75119e+6 
         971.88      9.54573e+6 
         971.91      1.13812e+7 
        971.969      1.46551e+7 
        972.037      1.80347e+7 
        972.087      2.03603e+7 
        972.137      2.25728e+7 
         972.15       2.3129e+7 
        972.237      2.66866e+7 
        972.324      2.99582e+7 
        972.499       3.5724e+7 
        972.548      3.71826e+7 
        972.673      4.06437e+7 
        972.798      4.37891e+7 
        972.923      4.66746e+7 
        973.048      4.93456e+7 
        973.173      5.18388e+7 
        973.298      5.41852e+7 
        973.423      5.64406e+7 
        973.548      5.86099e+7 
        973.601      5.95093e+7 
        973.673      6.07157e+7 
        973.746      6.19063e+7 
         973.89      6.42578e+7 
        974.178      6.87861e+7 
        974.445      7.29779e+7 
        974.466      7.33131e+7 
        975.043      8.23572e+7 
         975.64        9.183e+7 
        975.939      9.67095e+7 
        976.237      1.01623e+8 
        976.387       1.0422e+8 
        976.537       1.0694e+8 
        976.686      1.09811e+8 
        976.835      1.12866e+8 
        976.984       1.1613e+8 
        977.134      1.19644e+8 
        977.432      1.26861e+8 
        977.582      1.30416e+8 
        977.732      1.34214e+8 
        977.881      1.38294e+8 
         978.03      1.42406e+8 
        978.179       1.4641e+8 
        978.329      1.50678e+8 
        978.478      1.55247e+8 
        978.627      1.60158e+8 
        978.776      1.65559e+8 
        978.927      1.71455e+8 
        979.076      1.77929e+8 
        979.145      1.81162e+8 
        979.225      1.85094e+8 
        979.305      1.89263e+8 
        979.465       1.9679e+8 
        979.625      2.05085e+8 
        979.785      2.14297e+8 
        979.945      2.24586e+8 
        980.105      2.32946e+8 
        980.266       2.4115e+8 
        980.426      2.49921e+8 
