# Koester WD models
# teff = 20000 K (value for the effective temperature for the model. Temperatures are given in K)
# logg = 9 log(cm/s2) (value for Log(G) for the model.)
#
# column 1: WAVELENGTH (ANGSTROM), Wavelength in Angstrom
# column 2: FLUX (ERG/CM2/S/A), Flux in erg/cm2/s/A
         899.23      1.19269e+7 
        904.235      1.24054e+7 
         908.45      1.28176e+7 
        909.241      1.28958e+7 
        910.032      1.29742e+7 
        911.193      1.30893e+7 
        911.613      1.31307e+7 
        911.824      1.31513e+7 
        911.929      1.31615e+7 
        912.034      1.31717e+7 
        912.139      1.32457e+7 
        912.244      1.33191e+7 
        912.349      1.33916e+7 
        912.454      1.34632e+7 
        912.559      1.35339e+7 
        912.664      1.36035e+7 
         912.77      1.36719e+7 
        912.875      1.37386e+7 
        912.886      1.37454e+7 
        913.037      1.38363e+7 
        913.085      1.38641e+7 
        913.241      1.39504e+7 
        913.284      1.39725e+7 
        913.531      1.40889e+7 
        913.822      1.41931e+7 
        914.059      1.42271e+7 
        914.112       1.4238e+7 
        914.165       1.4247e+7 
        914.271      1.42581e+7 
        914.377      1.42436e+7 
        914.391      1.42357e+7 
        914.483      1.41998e+7 
        914.575      1.41824e+7 
         914.76      1.42349e+7 
        914.817      1.42091e+7 
        914.944      1.40311e+7 
        915.071      1.38913e+7 
        915.198      1.40459e+7 
        915.325      1.41691e+7 
        915.452      1.39551e+7 
        915.516       1.3712e+7 
         915.58      1.34517e+7 
        915.609      1.33428e+7 
        915.643      1.32602e+7 
        915.677      1.32707e+7 
        915.745      1.34823e+7 
        915.881      1.42449e+7 
        916.017      1.46716e+7 
        916.153      1.44237e+7 
        916.289      1.35076e+7 
        916.379      1.28802e+7 
        916.421      1.27781e+7 
        916.425      1.27787e+7 
        916.429      1.27814e+7 
        916.479      1.29749e+7 
         916.58      1.39066e+7 
         916.68      1.49137e+7 
         916.78      1.55904e+7 
         916.88      1.58359e+7 
         916.98       1.5605e+7 
         917.08      1.48622e+7 
         917.18       1.3665e+7 
        917.182      1.36405e+7 
         917.28      1.22445e+7 
        917.378      1.14962e+7 
        917.575      1.39636e+7 
        917.771      1.65907e+7 
        917.967      1.75807e+7 
        918.163       1.6544e+7 
        918.359      1.36994e+7 
         918.51      1.08581e+7 
        918.556      1.01823e+7 
        918.602      9.91766e+6 
        918.694      1.09053e+7 
        918.878      1.46674e+7 
        919.062      1.77942e+7 
        919.201      1.94082e+7 
        919.241      1.97131e+7 
        919.246      1.97454e+7 
        919.251      1.97765e+7 
        919.301      2.00311e+7 
        919.402      2.01908e+7 
        919.502      1.99542e+7 
        919.602      1.92306e+7 
        919.702      1.79604e+7 
        919.802      1.64938e+7 
        919.902      1.45886e+7 
        920.002      1.25209e+7 
        920.102      1.02509e+7 
        920.165      9.01332e+6 
        920.189      8.72502e+6 
        920.202      8.64695e+6 
        920.215      8.61965e+6 
        920.265      9.02319e+6 
        920.366      1.11482e+7 
        920.466      1.34584e+7 
        920.566      1.56194e+7 
        920.666      1.76647e+7 
        920.766      1.95472e+7 
        920.866      2.12555e+7 
        920.966      2.25832e+7 
        921.066      2.36096e+7 
        921.166      2.42829e+7 
        921.266      2.45645e+7 
        921.367      2.45293e+7 
        921.467      2.41539e+7 
        921.567      2.33481e+7 
        921.667      2.21903e+7 
        921.767      2.07569e+7 
        921.867      1.89645e+7 
        921.967      1.70575e+7 
        922.067      1.49475e+7 
        922.167      1.26784e+7 
        922.267      1.02294e+7 
        922.331      8.65524e+6 
        922.368      7.99994e+6 
        922.405      7.77064e+6 
        922.479      8.66721e+6 
        922.627      1.23882e+7 
         922.67      1.34566e+7 
         922.74      1.50382e+7 
        922.775      1.58486e+7 
         922.81      1.66459e+7 
         922.95      1.96324e+7 
         923.09      2.25061e+7 
         923.23      2.50995e+7 
        923.371      2.73267e+7 
        923.511      2.90184e+7 
        923.651      3.03194e+7 
        923.791      3.10831e+7 
        923.931      3.13924e+7 
        924.071      3.12382e+7 
        924.211      3.05643e+7 
        924.352      2.93418e+7 
        924.492      2.76767e+7 
        924.632      2.55407e+7 
        924.772      2.30044e+7 
        924.912       2.0237e+7 
        925.052      1.72144e+7 
        925.192      1.39814e+7 
        925.333      1.03283e+7 
        925.434      7.73938e+6 
        925.462      7.38425e+6 
        925.473      7.32104e+6 
        925.484      7.30241e+6 
        925.534      7.74644e+6 
        925.634      1.03247e+7 
        925.734      1.30478e+7 
        925.834      1.54688e+7 
        925.934      1.77991e+7 
        926.034      2.00623e+7 
        926.134      2.22661e+7 
        926.232      2.43274e+7 
        926.234      2.43687e+7 
        926.301        2.575e+7 
        926.335      2.64723e+7 
        926.369      2.71712e+7 
        926.505      2.97469e+7 
        926.641      3.21715e+7 
        926.777      3.44014e+7 
        926.913      3.62932e+7 
        927.049      3.78801e+7 
        927.185      3.91885e+7 
        927.322      4.01838e+7 
        927.458      4.09205e+7 
        927.594      4.13961e+7 
         927.73      4.16424e+7 
        927.866      4.16453e+7 
        928.002      4.13877e+7 
        928.006      4.13757e+7 
        928.094      4.10182e+7 
        928.138      4.07829e+7 
        928.182      4.05112e+7 
        928.359      3.90754e+7 
        928.535      3.71509e+7 
        928.711      3.46725e+7 
        928.887      3.17816e+7 
        928.985      3.00809e+7 
        929.037      2.91549e+7 
        929.063      2.86743e+7 
        929.089      2.81832e+7 
        929.125       2.7484e+7 
        929.193      2.61064e+7 
        929.261      2.47111e+7 
        929.398      2.18655e+7 
        929.493      1.97449e+7 
        929.525      1.90146e+7 
        929.534      1.88123e+7 
        929.543      1.86072e+7 
        929.593      1.74475e+7 
        929.617      1.68814e+7 
        929.655       1.5956e+7 
        929.693       1.4988e+7 
        929.769      1.30692e+7 
        929.827      1.14321e+7 
        929.883      9.71845e+6 
         929.91      8.87123e+6 
        929.939      8.01936e+6 
        929.954      7.69678e+6 
        929.968      7.44243e+6 
        929.982      7.30282e+6 
        929.996      7.22676e+6 
         930.01      7.20182e+6 
        930.024      7.22862e+6 
        930.038      7.30656e+6 
        930.052      7.44812e+6 
        930.081      8.02966e+6 
        930.137      9.74026e+6 
        930.201      1.17006e+7 
        930.247      1.30129e+7 
        930.249      1.30685e+7 
        930.251      1.31234e+7 
        930.301       1.4434e+7 
        930.326      1.50172e+7 
        930.402      1.69474e+7 
        930.478      1.87603e+7 
         930.63      2.22726e+7 
        930.633      2.23392e+7 
        930.782      2.55831e+7 
        930.931      2.88009e+7 
         931.08      3.17558e+7 
        931.229      3.47218e+7 
        931.379      3.76407e+7 
        931.528      4.03315e+7 
        931.677      4.28073e+7 
        931.788      4.45827e+7 
        931.814      4.49876e+7 
        931.826       4.5172e+7 
        931.838      4.53545e+7 
        931.888      4.60963e+7 
        931.988      4.74996e+7 
        932.188      4.98985e+7 
        932.389      5.19582e+7 
        932.589      5.37043e+7 
        932.789      5.51029e+7 
        932.989      5.61453e+7 
        933.189      5.69486e+7 
        933.347      5.74095e+7 
        933.375      5.74745e+7 
        933.377      5.74789e+7 
        933.389       5.7505e+7 
        933.403      5.75342e+7 
        933.432      5.75797e+7 
         933.46      5.76184e+7 
        933.542      5.76957e+7 
        933.652      5.77139e+7 
        933.762        5.762e+7 
        933.872      5.74176e+7 
        933.982      5.70915e+7 
        934.092      5.66316e+7 
        934.202      5.60422e+7 
        934.312      5.53178e+7 
        934.413      5.45641e+7 
        934.422      5.44966e+7 
        934.533      5.36015e+7 
        934.652      5.24938e+7 
        934.771      5.12538e+7 
         934.89      4.99567e+7 
        935.009       4.8509e+7 
        935.026      4.82891e+7 
        935.128       4.6947e+7 
         935.23      4.55798e+7 
        935.332      4.41202e+7 
        935.434      4.26144e+7 
        935.537      4.10468e+7 
        935.639      3.93997e+7 
        935.741      3.76825e+7 
        935.843      3.58607e+7 
        935.945      3.39279e+7 
         935.95      3.38306e+7 
        936.047      3.19346e+7 
        936.144      2.99684e+7 
        936.338       2.5805e+7 
        936.464      2.29971e+7 
        936.532      2.14092e+7 
        936.601      1.97712e+7 
        936.645      1.86842e+7 
        936.714       1.6948e+7 
        936.737      1.63401e+7 
        936.829      1.38694e+7 
        936.887      1.20889e+7 
        936.944      1.01515e+7 
        936.973      9.11832e+6 
        937.001      8.18611e+6 
        937.015      7.87227e+6 
        937.029      7.63548e+6 
        937.043      7.52603e+6 
        937.058      7.47071e+6 
        937.072      7.45594e+6 
        937.086      7.47259e+6 
        937.101      7.52996e+6 
        937.115      7.64139e+6 
        937.143      8.19648e+6 
         937.15      8.42349e+6 
        937.186      9.67768e+6 
        937.199      1.01395e+7 
         937.25      1.19011e+7 
        937.314      1.38972e+7 
        937.341      1.46617e+7 
        937.442      1.73626e+7 
        937.543      1.99213e+7 
        937.645      2.23913e+7 
        937.694      2.35485e+7 
        937.746      2.47391e+7 
        937.847      2.70361e+7 
            938      3.04356e+7 
        938.153      3.36518e+7 
        938.306      3.67786e+7 
        938.459      3.97041e+7 
        938.612      4.24875e+7 
        938.617      4.25767e+7 
        938.766      4.51613e+7 
        938.914      4.77349e+7 
        939.149      5.17232e+7 
         939.21      5.27486e+7 
        939.271      5.37486e+7 
        939.393      5.56998e+7 
        939.637      5.97141e+7 
        939.882      6.36675e+7 
        940.126      6.75116e+7 
         940.37      7.10324e+7 
        940.488      7.26236e+7 
        940.614      7.42531e+7 
         940.74      7.57988e+7 
        940.867       7.7078e+7 
        940.993       7.8296e+7 
        941.245      8.05545e+7 
        941.497      8.25108e+7 
        941.749      8.42299e+7 
        942.002      8.57639e+7 
        942.254      8.70953e+7 
        942.506       8.8187e+7 
        942.758       8.9055e+7 
        942.899      8.94371e+7 
        942.973      8.96083e+7 
        943.011      8.96856e+7 
        943.048      8.97569e+7 
        943.196      8.99802e+7 
        943.344      9.00154e+7 
        943.492      8.99136e+7 
         943.64      8.96808e+7 
        943.788      8.93098e+7 
        943.936      8.87949e+7 
        944.084      8.81107e+7 
        944.233      8.72213e+7 
        944.381      8.61641e+7 
        944.529      8.49374e+7 
        944.677      8.35453e+7 
        944.825      8.20386e+7 
        944.973      8.04314e+7 
        945.121      7.86922e+7 
        945.155      7.82759e+7 
        945.232      7.73218e+7 
         945.27      7.68339e+7 
        945.308      7.63376e+7 
         945.46      7.44146e+7 
        945.764      7.03842e+7 
        946.068      6.60975e+7 
        946.195      6.42456e+7 
        946.373      6.16283e+7 
        946.677      5.72084e+7 
        946.918       5.3671e+7 
        947.158      4.99466e+7 
        947.278      4.79973e+7 
        947.398      4.59788e+7 
         947.52      4.38837e+7 
         947.64       4.1709e+7 
        947.678      4.10016e+7 
         947.76      3.94383e+7 
        947.779      3.90679e+7 
         947.88      3.70365e+7 
        947.982       3.4932e+7 
        948.083      3.27461e+7 
        948.184      3.04756e+7 
        948.286       2.8134e+7 
        948.387      2.57323e+7 
        948.431      2.46498e+7 
        948.488      2.32222e+7 
        948.546      2.17593e+7 
         948.66      1.87143e+7 
        948.727      1.68119e+7 
        948.761      1.58115e+7 
        948.771      1.55089e+7 
        948.774      1.54167e+7 
        948.777      1.53247e+7 
        948.827      1.36441e+7 
        948.835      1.33625e+7 
        948.893      1.11173e+7 
        948.922      9.90513e+6 
        948.951       8.7859e+6 
        948.966      8.46216e+6 
         948.98      8.28422e+6 
        948.994      8.22601e+6 
        949.009      8.20292e+6 
        949.023      8.19865e+6 
        949.037      8.20493e+6 
        949.052      8.23016e+6 
        949.066      8.29044e+6 
        949.095      8.79687e+6 
        949.153      1.11416e+7 
         949.23      1.40815e+7 
        949.258      1.50444e+7 
        949.269      1.53854e+7 
         949.28       1.5724e+7 
         949.33       1.7215e+7 
         949.36      1.80782e+7 
         949.43      2.00335e+7 
          949.5       2.1919e+7 
         949.64      2.55247e+7 
        949.781      2.89334e+7 
        949.795      2.92659e+7 
        949.879       3.1258e+7 
        949.921      3.22346e+7 
        949.963      3.31978e+7 
        950.131      3.69143e+7 
        950.299      4.04358e+7 
        950.467      4.37357e+7 
        950.635      4.68876e+7 
        950.719      4.84173e+7 
        950.804      4.99146e+7 
        950.888      5.13867e+7 
        951.056      5.42632e+7 
        951.392      5.98514e+7 
         951.56      6.26895e+7 
        951.728      6.55349e+7 
        951.896      6.85615e+7 
        952.065      7.15799e+7 
        952.233      7.46442e+7 
        952.401      7.77817e+7 
        952.688      8.31624e+7 
        952.737      8.41752e+7 
        952.788      8.52346e+7 
        952.888      8.73237e+7 
        953.089      9.15561e+7 
        953.489      1.00358e+8 
        953.689      1.04889e+8 
        953.889      1.09423e+8 
        954.089      1.13806e+8 
         954.29      1.17934e+8 
         954.49      1.21971e+8 
         954.69      1.25916e+8 
         954.89      1.29622e+8 
        954.967      1.30905e+8 
         955.09      1.32934e+8 
        955.491      1.39346e+8 
        956.014      1.47233e+8 
        956.537      1.54597e+8 
        957.061      1.61515e+8 
        957.584       1.6798e+8 
        958.108      1.73887e+8 
        958.631      1.79239e+8 
        959.021      1.82799e+8 
        959.155      1.83933e+8 
        959.289      1.85018e+8 
        959.557      1.87065e+8 
        959.757      1.88447e+8 
        960.093       1.9049e+8 
         960.43      1.92135e+8 
        960.766      1.93516e+8 
        961.102      1.94434e+8 
        961.439       1.9488e+8 
        961.775       1.9481e+8 
        962.111      1.94225e+8 
        962.447      1.93065e+8 
        962.784      1.91346e+8 
         963.12      1.88982e+8 
        963.456      1.86063e+8 
        963.793      1.82561e+8 
        964.027      1.79818e+8 
        964.129      1.78523e+8 
        964.231      1.77164e+8 
        964.435      1.74352e+8 
        964.843      1.68179e+8 
        965.252      1.61339e+8 
         965.66      1.53862e+8 
        966.068       1.4598e+8 
        966.477      1.37752e+8 
        966.885      1.29321e+8 
        967.371      1.19214e+8 
        967.702      1.12364e+8 
        968.032      1.05635e+8 
        968.088      1.04481e+8 
        968.693      9.23578e+7 
        969.297      8.04951e+7 
        969.826      6.99526e+7 
        969.876      6.89297e+7 
        969.902       6.8417e+7 
        969.927      6.79027e+7 
        970.027      6.58189e+7 
        970.227      6.15246e+7 
        970.427      5.70143e+7 
        970.627      5.22051e+7 
        970.686      5.06912e+7 
         970.78      4.82049e+7 
        970.827      4.69263e+7 
        970.874       4.5621e+7 
        971.062      4.00965e+7 
        971.154      3.72131e+7 
        971.251      3.39691e+7 
        971.348      3.05205e+7 
        971.499      2.47149e+7 
        971.542      2.29608e+7 
        971.585      2.11525e+7 
        971.639      1.88024e+7 
        971.644      1.85775e+7 
        971.671      1.73488e+7 
        971.703       1.5825e+7 
        971.732      1.43628e+7 
        971.762      1.27608e+7 
        971.778      1.18706e+7 
        971.792      1.10994e+7 
        971.806      1.04068e+7 
        971.821       9.9569e+6 
        971.827      9.92193e+6 
        971.833       9.9215e+6 
        971.836      9.92175e+6 
        971.839      9.92197e+6 
        971.851      9.92388e+6 
        971.866      1.01761e+7 
         971.88      1.07951e+7 
         971.91      1.24444e+7 
        971.969      1.55613e+7 
        972.037      1.87671e+7 
        972.087      2.09706e+7 
        972.137      2.30943e+7 
         972.15      2.36351e+7 
        972.237      2.71371e+7 
        972.324       3.0448e+7 
        972.499      3.64993e+7 
        972.548      3.80708e+7 
        972.673      4.18589e+7 
        972.798      4.53511e+7 
        972.923      4.85791e+7 
        973.048      5.15689e+7 
        973.173      5.43521e+7 
        973.298      5.69615e+7 
        973.423      5.94631e+7 
        973.548      6.18539e+7 
        973.601      6.28391e+7 
        973.673      6.41573e+7 
        973.746      6.54529e+7 
         973.89      6.79973e+7 
        974.178      7.28391e+7 
        974.466      7.76011e+7 
        975.043      8.69024e+7 
        975.556      9.50369e+7 
        975.598      9.56803e+7 
        975.619      9.60036e+7 
         975.64      9.63275e+7 
        975.724      9.76335e+7 
        975.892      1.00304e+8 
        976.228      1.05602e+8 
        976.397      1.08354e+8 
        976.565      1.11231e+8 
        976.733      1.14258e+8 
        976.901      1.17476e+8 
        977.069      1.20921e+8 
        977.237      1.24639e+8 
        977.405      1.28161e+8 
        977.574      1.31634e+8 
        977.742      1.35329e+8 
         977.91      1.39295e+8 
        978.078      1.43128e+8 
        978.246      1.46984e+8 
        978.414      1.51092e+8 
        978.582      1.55491e+8 
         978.75      1.60277e+8 
        978.919      1.65504e+8 
        979.087      1.71231e+8 
        979.105      1.71877e+8 
        979.205      1.75601e+8 
        979.255      1.77549e+8 
        979.305      1.79563e+8 
        979.505      1.86794e+8 
        979.705      1.94827e+8 
        979.905      2.03859e+8 
        980.105      2.11839e+8 
        980.306      2.19214e+8 
        980.506      2.27132e+8 
        980.706      2.35095e+8 
        980.906      2.41703e+8 
        981.106      2.48551e+8 
        981.506      2.62455e+8 
        982.307      2.90108e+8 
        982.707      3.03814e+8 
        983.108      3.17804e+8 
        983.508      3.32528e+8 
        983.863      3.46499e+8 
        983.893      3.47711e+8 
        983.908      3.48318e+8 
        983.923      3.48927e+8 
        983.983      3.51463e+8 
        984.103      3.56301e+8 
        984.344      3.65647e+8 
        984.824        3.846e+8 
        984.951      3.89325e+8 
        985.785      4.21253e+8 
