# Koester WD models
# teff = 22000 K (value for the effective temperature for the model. Temperatures are given in K)
# logg = 8 log(cm/s2) (value for Log(G) for the model.)
#
# column 1: WAVELENGTH (ANGSTROM), Wavelength in Angstrom
# column 2: FLUX (ERG/CM2/S/A), Flux in erg/cm2/s/A
         899.23      3.58852e+7 
        900.752      3.62552e+7 
        903.361      3.68939e+7 
        903.798      3.70017e+7 
        904.235      3.71094e+7 
        904.475      3.71688e+7 
        905.109      3.73256e+7 
        906.858      3.77601e+7 
         908.45      3.81578e+7 
        909.241       3.8356e+7 
        910.032      3.85546e+7 
        911.193      3.88461e+7 
        911.613      3.89507e+7 
        911.824      3.90026e+7 
        911.929      3.90283e+7 
        912.034      3.90538e+7 
        912.139      3.94025e+7 
        912.244      3.97443e+7 
        912.349      4.00814e+7 
        912.454      4.04134e+7 
        912.559      4.07399e+7 
        912.664      4.10581e+7 
         912.77      4.13688e+7 
        912.875      4.16688e+7 
        912.886      4.16996e+7 
        913.085      4.21988e+7 
        913.284      4.25667e+7 
        913.433       4.2781e+7 
        913.445      4.27938e+7 
        913.483      4.28435e+7 
        913.533      4.29164e+7 
        913.633      4.30584e+7 
        913.822      4.31027e+7 
        913.855      4.31551e+7 
         914.01      4.32908e+7 
        914.165      4.28912e+7 
         914.32      4.34275e+7 
        914.375      4.34046e+7 
        914.475      4.26823e+7 
        914.575      4.20153e+7 
        914.676      4.27762e+7 
        914.776      4.34818e+7 
        914.876      4.29971e+7 
        914.881      4.29349e+7 
        914.976      4.13368e+7 
        915.071      4.00933e+7 
        915.261      4.31507e+7 
        915.451      4.25934e+7 
        915.592       3.8701e+7 
        915.642      3.72964e+7 
        915.692      3.71484e+7 
        915.792      4.03069e+7 
        915.892      4.37087e+7 
        915.992      4.55368e+7 
        916.092      4.53926e+7 
        916.192      4.32377e+7 
        916.292       3.9273e+7 
        916.342      3.67547e+7 
        916.392      3.45867e+7 
        916.442      3.41124e+7 
        916.543      3.86108e+7 
        916.643       4.4014e+7 
        916.743      4.79709e+7 
        916.843      5.00214e+7 
        916.943      4.99318e+7 
        917.043      4.74833e+7 
        917.143      4.29569e+7 
        917.243      3.70378e+7 
        917.293      3.35692e+7 
        917.343      3.06773e+7 
        917.393       3.0089e+7 
        917.494      3.59159e+7 
        917.594      4.29233e+7 
        917.694      4.89944e+7 
        917.794      5.36367e+7 
        917.894      5.63627e+7 
        917.994      5.71299e+7 
        918.094      5.55798e+7 
        918.194      5.21049e+7 
        918.294      4.67915e+7 
        918.394      4.01499e+7 
        918.495      3.22742e+7 
        918.545      2.85037e+7 
        918.595      2.63505e+7 
        918.645      2.76063e+7 
        918.745      3.54758e+7 
        918.845      4.31821e+7 
        918.945      5.02856e+7 
        919.045      5.67868e+7 
        919.145      6.17782e+7 
        919.195      6.37602e+7 
        919.245      6.52964e+7 
        919.295       6.6368e+7 
        919.396      6.71716e+7 
        919.496      6.65116e+7 
        919.596      6.40197e+7 
        919.696      5.96544e+7 
        919.796      5.42694e+7 
        919.896      4.74962e+7 
        919.996      3.98901e+7 
        920.096      3.15542e+7 
        920.146      2.70153e+7 
        920.196      2.39584e+7 
        920.246      2.44335e+7 
        920.346       3.2747e+7 
        920.447        4.095e+7 
        920.547      4.89718e+7 
        920.647       5.6402e+7 
        920.747      6.29754e+7 
        920.847      6.92134e+7 
        920.947      7.41315e+7 
        921.047       7.7876e+7 
        921.147      8.05473e+7 
        921.247      8.18658e+7 
        921.348      8.20427e+7 
        921.448      8.10317e+7 
        921.548      7.86168e+7 
        921.648       7.4915e+7 
        921.748      7.02432e+7 
        921.848      6.42864e+7 
        921.948      5.77641e+7 
        922.048       5.0524e+7 
        922.148      4.26022e+7 
        922.248       3.4004e+7 
        922.292      2.97194e+7 
        922.349      2.44528e+7 
        922.405      2.19493e+7 
        922.517      2.97723e+7 
        922.629      3.99821e+7 
        922.672      4.37743e+7 
        922.741      4.93723e+7 
         922.81      5.48525e+7 
        922.948      6.48924e+7 
        923.086      7.45981e+7 
        923.224      8.30232e+7 
        923.363       9.0464e+7 
        923.501       9.6107e+7 
        923.639      1.00345e+8 
        923.777      1.02898e+8 
        923.915      1.04069e+8 
        924.053      1.03841e+8 
        924.191      1.02018e+8 
         924.33      9.85433e+7 
        924.468      9.34552e+7 
        924.606      8.67519e+7 
        924.744      7.87201e+7 
        924.882      6.97349e+7 
         925.02      5.97518e+7 
        925.158      4.88876e+7 
        925.297      3.67554e+7 
        925.385      2.79264e+7 
        925.435      2.28475e+7 
        925.485      2.09594e+7 
        925.585      2.81732e+7 
        925.685      3.81622e+7 
        925.785      4.71292e+7 
        925.885      5.54768e+7 
        925.985      6.30697e+7 
        926.085      7.07367e+7 
        926.202      7.91081e+7 
        926.286      8.46854e+7 
        926.369      9.03839e+7 
        926.535      1.00613e+8 
        926.701      1.09872e+8 
        926.867      1.17909e+8 
        927.033      1.24524e+8 
        927.199      1.29826e+8 
        927.366      1.33757e+8 
        927.532      1.36404e+8 
        927.698      1.37823e+8 
        927.864      1.38035e+8 
        927.878      1.37995e+8 
         928.03       1.3694e+8 
        928.182      1.34241e+8 
        928.335      1.30084e+8 
        928.487      1.24745e+8 
        928.639      1.18018e+8 
        928.791      1.10159e+8 
        928.797      1.09858e+8 
        928.943      1.02041e+8 
        929.089      9.36393e+7 
        929.185      8.74789e+7 
        929.235      8.41432e+7 
        929.285      8.08483e+7 
        929.386      7.39013e+7 
        929.429      7.07311e+7 
        929.486      6.64695e+7 
        929.543      6.21105e+7 
        929.545      6.19563e+7 
        929.657      5.28783e+7 
        929.769      4.28322e+7 
        929.831      3.67516e+7 
        929.881      3.14643e+7 
        929.931      2.55204e+7 
        929.981       2.1202e+7 
        930.025       2.0799e+7 
        930.031      2.09395e+7 
        930.081      2.46284e+7 
        930.137      3.13097e+7 
        930.199      3.78713e+7 
        930.249      4.27869e+7 
        930.299      4.74757e+7 
        930.322      4.94063e+7 
          930.4      5.62307e+7 
        930.478      6.25463e+7 
        930.634      7.45783e+7 
        930.649      7.56907e+7 
         930.79      8.56731e+7 
        930.931      9.54598e+7 
        931.072      1.04444e+8 
        931.213      1.13248e+8 
        931.355      1.22355e+8 
        931.496      1.31212e+8 
        931.637      1.39583e+8 
        931.718      1.44125e+8 
        931.778      1.47583e+8 
        931.838      1.50938e+8 
        931.958      1.57325e+8 
        932.078      1.63019e+8 
        932.198      1.68261e+8 
        932.318      1.73166e+8 
        932.439      1.77696e+8 
        932.559      1.81869e+8 
        932.679      1.85694e+8 
        932.799      1.88831e+8 
        932.919      1.91461e+8 
        933.039      1.93751e+8 
        933.156      1.95637e+8 
        933.159      1.95688e+8 
         933.28      1.97257e+8 
        933.403      1.98455e+8 
        933.477      1.98875e+8 
        933.503      1.98977e+8 
        933.527      1.99055e+8 
        933.577      1.99149e+8 
        933.652      1.99124e+8 
        933.801      1.98419e+8 
         933.95      1.96832e+8 
        934.099      1.94152e+8 
        934.248      1.90495e+8 
        934.397      1.85927e+8 
        934.442       1.8453e+8 
        934.547      1.80959e+8 
        934.652      1.76986e+8 
        934.757      1.72622e+8 
        934.861      1.68082e+8 
         934.91      1.65815e+8 
        934.966      1.63158e+8 
         935.07      1.57873e+8 
         935.23      1.50043e+8 
         935.39      1.41877e+8 
        935.551      1.33539e+8 
        935.597      1.31028e+8 
        935.711      1.24798e+8 
        935.734      1.23494e+8 
        935.871      1.15581e+8 
        936.007      1.07217e+8 
        936.144      9.85037e+7 
        936.235      9.24329e+7 
        936.281      8.92476e+7 
        936.417      7.96554e+7 
        936.601       6.5549e+7 
        936.734      5.42239e+7 
        936.784      4.96438e+7 
        936.834      4.48239e+7 
        936.884      3.95454e+7 
        936.934      3.37919e+7 
        936.984      2.72453e+7 
        937.034      2.19296e+7 
        937.084       2.1124e+7 
        937.134      2.38609e+7 
        937.153      2.62583e+7 
        937.184      3.04848e+7 
        937.234      3.66435e+7 
        937.314      4.53429e+7 
        937.406      5.41149e+7 
        937.475      6.02027e+7 
        937.543      6.59662e+7 
        937.681      7.68748e+7 
        937.817      8.69583e+7 
        937.904       9.3109e+7 
        937.954      9.66162e+7 
        938.004      1.00053e+8 
        938.104      1.06763e+8 
        938.304      1.19712e+8 
        938.494      1.31467e+8 
        938.504      1.32029e+8 
        938.556      1.35199e+8 
        938.705      1.44104e+8 
        938.736       1.4594e+8 
        938.914       1.5689e+8 
        939.093      1.68167e+8 
        939.271      1.80184e+8 
        939.449      1.92107e+8 
        939.628      2.04376e+8 
        939.807      2.16958e+8 
        939.986      2.30421e+8 
        940.164      2.43789e+8 
        940.343      2.56713e+8 
        940.521      2.69309e+8 
         940.65      2.78152e+8 
          940.7      2.81536e+8 
         940.75       2.8478e+8 
        940.851      2.90613e+8 
        940.951      2.96277e+8 
        941.151      3.07084e+8 
        941.351      3.17188e+8 
        941.551      3.25862e+8 
        941.751      3.33932e+8 
        941.952      3.41375e+8 
        942.152      3.48132e+8 
        942.352      3.54032e+8 
        942.457      3.56731e+8 
        942.552      3.58962e+8 
        942.605      3.60108e+8 
        942.752      3.62964e+8 
          942.9      3.65276e+8 
        942.998      3.66495e+8 
        943.048      3.67017e+8 
        943.098      3.67472e+8 
        943.198      3.68157e+8 
        943.398      3.67733e+8 
        943.598      3.65663e+8 
        943.798      3.61915e+8 
        943.998      3.56436e+8 
        944.199      3.48868e+8 
        944.399      3.39408e+8 
        944.599      3.28234e+8 
        944.691      3.22554e+8 
        944.799      3.15739e+8 
        944.845      3.12858e+8 
        944.999      3.02795e+8 
        945.153      2.92186e+8 
        945.308      2.81169e+8 
        945.616      2.59806e+8 
        945.769      2.48921e+8 
        946.001      2.32738e+8 
        946.232      2.17026e+8 
        946.464       2.0232e+8 
        946.695      1.88433e+8 
        946.927      1.75079e+8 
        947.158      1.61819e+8 
         947.39      1.48523e+8 
        947.622      1.35036e+8 
        947.737      1.28126e+8 
        947.852      1.20965e+8 
        947.968      1.13532e+8 
        948.083      1.05816e+8 
        948.198      9.77535e+7 
        948.314      8.94104e+7 
        948.429      8.05693e+7 
        948.494      7.52814e+7 
        948.545      7.10735e+7 
        948.595      6.67246e+7 
        948.614      6.50847e+7 
        948.661      6.08162e+7 
        948.695      5.75266e+7 
        948.777      4.93698e+7 
        948.835      4.27511e+7 
        948.893      3.51607e+7 
        948.901      3.40024e+7 
        948.951      2.60421e+7 
        949.001      2.27324e+7 
        949.049      2.28101e+7 
        949.051       2.2846e+7 
        949.101      2.68869e+7 
        949.153      3.52264e+7 
        949.207      4.23857e+7 
        949.257      4.82555e+7 
        949.307      5.34621e+7 
        949.314      5.41633e+7 
        949.407      6.31545e+7 
          949.5      7.14668e+7 
        949.687      8.67281e+7 
        949.783      9.39823e+7 
        949.873      1.00595e+8 
        949.963      1.07025e+8 
        950.143      1.19312e+8 
        950.323      1.30985e+8 
        950.479      1.40694e+8 
        950.503      1.42174e+8 
        950.683      1.53205e+8 
        950.888      1.65667e+8 
        951.092      1.78284e+8 
        951.296      1.91175e+8 
          951.5      2.04752e+8 
        951.602      2.11808e+8 
        951.704      2.19044e+8 
        951.806      2.27015e+8 
        951.908        2.353e+8 
        952.011      2.43819e+8 
        952.113      2.52571e+8 
        952.215      2.61783e+8 
        952.317      2.71449e+8 
        952.521      2.91492e+8 
        952.675      3.07294e+8 
        952.725      3.12903e+8 
        952.775      3.18718e+8 
        952.875      3.30662e+8 
        953.075      3.55798e+8 
        953.276      3.82618e+8 
        953.476      4.12381e+8 
        953.676       4.4381e+8 
        953.876      4.76605e+8 
        954.076      5.09953e+8 
        954.477      5.75954e+8 
        954.677      6.09236e+8 
        954.877       6.4151e+8 
        955.077      6.70362e+8 
        955.277      6.99042e+8 
        955.341      7.08181e+8 
        955.678      7.55729e+8 
        956.014      8.01339e+8 
         956.35       8.4588e+8 
        956.687        8.893e+8 
        957.023      9.31457e+8 
        957.359      9.72263e+8 
        957.695      1.01131e+9 
        958.032      1.04834e+9 
        958.368      1.08328e+9 
        958.704      1.11592e+9 
        958.792      1.12403e+9 
        959.041      1.14576e+9 
        959.289      1.16583e+9 
        959.537      1.18452e+9 
        959.785      1.20122e+9 
        960.033      1.21592e+9 
        960.134      1.22125e+9 
        960.282       1.2284e+9 
         960.43       1.2347e+9 
        960.726       1.2464e+9 
        961.022      1.25423e+9 
        961.319      1.25808e+9 
        961.615      1.25769e+9 
        961.911      1.25296e+9 
        962.207       1.2437e+9 
        962.504      1.22968e+9 
          962.8      1.21105e+9 
        963.096      1.18716e+9 
        963.146      1.18268e+9 
        963.392      1.15885e+9 
        963.417      1.15627e+9 
        963.688      1.12592e+9 
         963.96       1.0923e+9 
        964.231       1.0549e+9 
        964.502      1.01407e+9 
        964.773      9.70765e+8 
        965.045      9.24998e+8 
        965.316      8.77833e+8 
        965.587      8.28652e+8 
        965.858      7.79058e+8 
        966.129      7.29371e+8 
        966.401      6.80029e+8 
        966.672      6.31991e+8 
        966.943       5.8449e+8 
        967.214       5.3932e+8 
        967.349      5.17672e+8 
        967.486      4.96306e+8 
        967.621      4.75691e+8 
        967.757      4.55782e+8 
        967.892      4.36581e+8 
        967.978      4.24838e+8 
        968.028      4.17989e+8 
        968.078      4.11184e+8 
        968.178      3.97902e+8 
        968.378      3.72574e+8 
        968.578       3.4878e+8 
        968.779      3.26308e+8 
        968.979      3.05137e+8 
        969.061      2.96806e+8 
        969.179      2.85174e+8 
        969.297      2.73903e+8 
        969.533      2.52278e+8 
        969.612      2.45322e+8 
        969.769      2.31847e+8 
        969.927      2.18777e+8 
        970.084      2.05995e+8 
        970.398      1.80987e+8 
         970.55      1.68911e+8 
        970.712      1.55719e+8 
        970.874      1.42092e+8 
        971.036      1.27796e+8 
        971.049      1.26602e+8 
        971.199        1.123e+8 
        971.348      9.64296e+7 
        971.409      8.93566e+7 
        971.467       8.2262e+7 
        971.497       7.8449e+7 
        971.585      6.66768e+7 
        971.644      5.82784e+7 
        971.703       4.9449e+7 
        971.712      4.80466e+7 
        971.762      3.98737e+7 
        971.812      3.00474e+7 
        971.855       2.7706e+7 
        971.862      2.91799e+7 
        971.912      3.92061e+7 
        971.969      4.85957e+7 
        972.033      5.82721e+7 
        972.083      6.54686e+7 
        972.133      7.23776e+7 
        972.142      7.35896e+7 
        972.233      8.53216e+7 
        972.324      9.61145e+7 
        972.507      1.15269e+8 
         972.58      1.22189e+8 
        972.689      1.31909e+8 
        972.798      1.41041e+8 
        972.907       1.4968e+8 
        973.016       1.5792e+8 
        973.125      1.65829e+8 
        973.234      1.73464e+8 
        973.343      1.80923e+8 
        973.377      1.83231e+8 
        973.561      1.95558e+8 
        973.746      2.07761e+8 
        974.114      2.32289e+8 
        974.298      2.44792e+8 
        974.482      2.57866e+8 
        974.666      2.71478e+8 
         974.85      2.84853e+8 
        975.035      2.99012e+8 
        975.219      3.14225e+8 
        975.534      3.39575e+8 
        975.587      3.43929e+8 
         975.64      3.48352e+8 
        975.746      3.57425e+8 
        975.958      3.76614e+8 
         976.17      3.95932e+8 
        976.383       4.1677e+8 
        976.489      4.27885e+8 
        976.595      4.39534e+8 
        976.701      4.51792e+8 
        976.807      4.64752e+8 
        976.913      4.78483e+8 
        977.019      4.93073e+8 
        977.125      5.08633e+8 
        977.231      5.25306e+8 
        977.443      5.57171e+8 
        977.549      5.73341e+8 
        977.656      5.90418e+8 
        977.762      6.08508e+8 
        977.868      6.27709e+8 
         978.08      6.66304e+8 
        978.186      6.85697e+8 
        978.292      7.06111e+8 
        978.398      7.27637e+8 
        978.504      7.50379e+8 
         978.61      7.74487e+8 
        978.716      8.00421e+8 
        978.822      8.28174e+8 
        978.929      8.57853e+8 
        978.977      8.71977e+8 
        979.035      8.89677e+8 
        979.141      9.23955e+8 
        979.305      9.82492e+8 
        979.469       1.0372e+9 
        979.633      1.09777e+9 
        979.797      1.16514e+9 
        979.961      1.24056e+9 
        980.125      1.29906e+9 
         980.29      1.35892e+9 
        980.454      1.42277e+9 
        980.618      1.49116e+9 
        980.782      1.54893e+9 
        980.946      1.60417e+9 
        981.274      1.72039e+9 
        981.603      1.83486e+9 
        982.259      2.06717e+9 
        982.587      2.18106e+9 
        982.916      2.29704e+9 
        983.221      2.40737e+9 
        983.244      2.41581e+9 
        983.572      2.54111e+9 
        983.923      2.68223e+9 
        984.275      2.81782e+9 
        984.626      2.95239e+9 
        984.741      2.99637e+9 
        984.977      3.07958e+9 
         985.68      3.33339e+9 
        986.149      3.50687e+9 
        986.384      3.59021e+9 
        986.618      3.67403e+9 
        986.735      3.71512e+9 
        986.852      3.74314e+9 
        986.971      3.76734e+9 
        987.088      3.79112e+9 
        987.205      3.81443e+9 
        987.322      3.83736e+9 
         987.44      3.86029e+9 
        987.557      3.88147e+9 
        987.674      3.90205e+9 
        987.791      3.92218e+9 
        987.909      3.94198e+9 
        988.026      3.96133e+9 
        988.143      3.98184e+9 
         988.26      4.01584e+9 
