# Koester WD models
# teff = 26000 K (value for the effective temperature for the model. Temperatures are given in K)
# logg = 7.25 log(cm/s2) (value for Log(G) for the model.)
#
# column 1: WAVELENGTH (ANGSTROM), Wavelength in Angstrom
# column 2: FLUX (ERG/CM2/S/A), Flux in erg/cm2/s/A
         899.23      2.53869e+8 
        904.235      2.59776e+8 
         908.45      2.64781e+8 
        909.241      2.65722e+8 
        910.032      2.66661e+8 
        911.193      2.68037e+8 
        911.613      2.68529e+8 
        911.824      2.68771e+8 
        911.929      2.68891e+8 
        912.034      2.69009e+8 
        912.139      2.70894e+8 
        912.244      2.72742e+8 
        912.349      2.74557e+8 
        912.454      2.76338e+8 
        912.559      2.78083e+8 
        912.664      2.79793e+8 
         912.77      2.81462e+8 
        912.875      2.83074e+8 
        912.886      2.83238e+8 
        913.085      2.85953e+8 
        913.284       2.8777e+8 
        913.339      2.88364e+8 
        913.435      2.89201e+8 
        913.483      2.89402e+8 
        913.531      2.89704e+8 
        913.625      2.90809e+8 
        913.724      2.91169e+8 
        913.822      2.90898e+8 
        913.871      2.91531e+8 
        914.018      2.92608e+8 
        914.165      2.90206e+8 
        914.312      2.93396e+8 
        914.343       2.9354e+8 
        914.459      2.90805e+8 
        914.575      2.86158e+8 
        914.692      2.91056e+8 
        914.808      2.93139e+8 
        914.924      2.87774e+8 
        915.009       2.7995e+8 
         915.04      2.77288e+8 
        915.071      2.76255e+8 
        915.133      2.80211e+8 
        915.257      2.90952e+8 
        915.381      2.92184e+8 
        915.505       2.8127e+8 
        915.609      2.65487e+8 
        915.617      2.64262e+8 
         915.63      2.62241e+8 
        915.643      2.60525e+8 
        915.677      2.59061e+8 
        915.745      2.67966e+8 
        915.881      2.92734e+8 
        916.017      3.03752e+8 
        916.153      2.97013e+8 
        916.289      2.71617e+8 
        916.379      2.48793e+8 
        916.421      2.42744e+8 
        916.425      2.42647e+8 
        916.429       2.4265e+8 
        916.479      2.50243e+8 
         916.58      2.79682e+8 
         916.68       3.0592e+8 
         916.78      3.23254e+8 
         916.88       3.3032e+8 
         916.98      3.24439e+8 
         917.08      3.06487e+8 
         917.18       2.7785e+8 
        917.182      2.77232e+8 
         917.28      2.42352e+8 
        917.378      2.16462e+8 
        917.575      2.82654e+8 
        917.771      3.45685e+8 
        917.967      3.72206e+8 
        918.163      3.48318e+8 
        918.359      2.82586e+8 
         918.51      2.19851e+8 
        918.556      2.00938e+8 
        918.602      1.91758e+8 
        918.694      2.20379e+8 
        918.878      3.02346e+8 
        919.062      3.75449e+8 
        919.201      4.15482e+8 
        919.241      4.23352e+8 
        919.246        4.242e+8 
        919.251      4.25017e+8 
        919.301      4.31548e+8 
        919.402      4.35931e+8 
        919.502      4.30612e+8 
        919.602      4.13066e+8 
        919.702      3.83259e+8 
        919.802       3.4883e+8 
        919.902      3.06511e+8 
        920.002      2.61616e+8 
        920.102      2.15136e+8 
        920.165      1.85562e+8 
        920.189      1.77155e+8 
        920.202      1.74459e+8 
        920.215      1.73547e+8 
        920.265      1.85679e+8 
        920.366       2.3298e+8 
        920.466      2.80293e+8 
        920.666      3.72938e+8 
        920.866      4.56979e+8 
        921.066      5.14775e+8 
        921.266      5.39628e+8 
        921.467      5.29685e+8 
        921.667      4.81989e+8 
        921.867      4.05617e+8 
        922.067      3.16176e+8 
         922.13      2.86426e+8 
        922.267      2.18845e+8 
        922.405      1.61297e+8 
        922.542      2.19202e+8 
        922.548      2.21926e+8 
        922.679      2.87654e+8 
         922.81      3.51915e+8 
        922.941      4.13763e+8 
        923.072      4.77802e+8 
        923.203      5.35701e+8 
        923.335       5.9143e+8 
        923.466      6.35525e+8 
        923.597      6.71531e+8 
        923.728      6.95948e+8 
        923.859      7.09334e+8 
         923.99      7.11976e+8 
        924.121      7.03063e+8 
        924.252      6.81669e+8 
        924.384       6.4812e+8 
        924.515      6.05812e+8 
        924.646       5.5342e+8 
        924.777      4.96057e+8 
        924.908       4.3474e+8 
        925.039      3.71625e+8 
         925.17      3.06047e+8 
        925.302      2.39075e+8 
        925.382      1.96556e+8 
        925.433      1.67832e+8 
        925.484      1.52834e+8 
        925.586      1.96783e+8 
        925.688      2.50943e+8 
         925.79      3.03829e+8 
        925.892      3.56294e+8 
        925.994      4.06111e+8 
        926.096      4.58798e+8 
        926.232      5.26368e+8 
        926.301      5.60441e+8 
        926.369      5.95571e+8 
        926.505      6.62157e+8 
        926.641      7.26873e+8 
        926.777      7.89485e+8 
        926.913      8.46361e+8 
        927.049      8.96293e+8 
        927.185      9.39339e+8 
        927.322      9.73259e+8 
        927.458      9.99033e+8 
        927.594      1.01578e+9 
         927.73      1.02437e+9 
        927.866      1.02407e+9 
        928.002      1.01432e+9 
        928.094      1.00063e+9 
        928.138      9.92008e+8 
        928.182      9.82191e+8 
         928.27      9.58654e+8 
        928.447       9.0192e+8 
        928.623      8.30964e+8 
        928.799        7.496e+8 
        928.861      7.21373e+8 
        928.917      6.95225e+8 
        928.975       6.6877e+8 
        929.089      6.15611e+8 
        929.261      5.31228e+8 
        929.325      5.00588e+8 
        929.434      4.46728e+8 
        929.543      3.92011e+8 
        929.652      3.36603e+8 
        929.719      3.00965e+8 
        929.753      2.82729e+8 
        929.755      2.81621e+8 
        929.761       2.7828e+8 
        929.769      2.73799e+8 
        929.819      2.46487e+8 
        929.827      2.42094e+8 
        929.883      2.10704e+8 
         929.91      1.94565e+8 
        929.939      1.76054e+8 
        929.954      1.66606e+8 
        929.968      1.58616e+8 
        929.982      1.52353e+8 
        929.996      1.48461e+8 
         930.01      1.47187e+8 
        930.024      1.48486e+8 
        930.038      1.52403e+8 
        930.052      1.58694e+8 
        930.081      1.76197e+8 
        930.137      2.10999e+8 
        930.201      2.46995e+8 
        930.247      2.72239e+8 
        930.249      2.73371e+8 
        930.251      2.74502e+8 
        930.301      3.01895e+8 
        930.326      3.14411e+8 
        930.329      3.16051e+8 
        930.402      3.55223e+8 
        930.478      3.94056e+8 
         930.63      4.71958e+8 
        930.781      5.47671e+8 
        930.931      6.26057e+8 
        931.081      7.02344e+8 
        931.232      7.83164e+8 
        931.383      8.71387e+8 
        931.534      9.59973e+8 
        931.788      1.11034e+9 
        931.832      1.13709e+9 
        931.835       1.1389e+9 
        931.838      1.14072e+9 
        931.888      1.17075e+9 
        931.988       1.2297e+9 
        932.188        1.337e+9 
        932.389      1.43646e+9 
        932.589       1.5261e+9 
        932.789      1.60111e+9 
        932.989       1.6583e+9 
        933.189      1.70298e+9 
        933.347       1.7285e+9 
        933.375      1.73204e+9 
        933.377      1.73228e+9 
        933.389      1.73369e+9 
        933.403      1.73526e+9 
        933.432      1.73765e+9 
         933.46      1.73959e+9 
        933.542      1.74314e+9 
        933.652      1.74265e+9 
        933.762      1.73529e+9 
        933.872      1.72138e+9 
        933.982      1.70022e+9 
        934.092      1.67142e+9 
        934.202      1.63557e+9 
        934.312      1.59291e+9 
        934.413      1.54985e+9 
        934.422      1.54604e+9 
        934.533       1.4967e+9 
        934.652      1.43802e+9 
        934.771      1.37519e+9 
         934.89      1.31213e+9 
        935.009      1.24533e+9 
        935.026      1.23551e+9 
        935.128      1.17737e+9 
         935.23      1.12137e+9 
        935.332      1.06488e+9 
        935.537      9.55644e+8 
        935.741      8.48708e+8 
        935.746      8.46106e+8 
        935.945      7.42443e+8 
        936.086       6.7024e+8 
        936.144      6.40599e+8 
        936.343      5.39559e+8 
        936.372       5.2501e+8 
        936.486      4.67416e+8 
        936.601      4.08366e+8 
        936.715      3.48296e+8 
        936.829         2.85e+8 
        936.887      2.51056e+8 
        936.944      2.16058e+8 
        936.973      1.96556e+8 
        937.001      1.75791e+8 
        937.015      1.65498e+8 
        937.029      1.56515e+8 
        937.043      1.49638e+8 
        937.058      1.45067e+8 
        937.072      1.43701e+8 
        937.086      1.45091e+8 
        937.101      1.49688e+8 
        937.115      1.56593e+8 
        937.143      1.75931e+8 
         937.15      1.81029e+8 
        937.186      2.07011e+8 
        937.199      2.15724e+8 
         937.25      2.47402e+8 
        937.314      2.85134e+8 
        937.341      3.00612e+8 
        937.442        3.567e+8 
        937.543      4.10229e+8 
        937.645      4.63288e+8 
        937.694      4.88694e+8 
        937.746      5.15275e+8 
        937.847      5.66872e+8 
            938      6.46892e+8 
        938.153      7.27477e+8 
        938.306      8.11062e+8 
        938.459      8.96168e+8 
        938.612      9.84471e+8 
        938.617      9.87431e+8 
        938.766      1.07697e+9 
        938.914      1.17449e+9 
        939.062      1.27724e+9 
        939.149      1.34414e+9 
         939.21      1.39169e+9 
        939.271      1.43967e+9 
        939.393      1.53767e+9 
        939.515      1.64601e+9 
        939.637      1.75876e+9 
         939.76      1.87552e+9 
        939.882      2.00428e+9 
            940      2.13173e+9 
        940.004      2.13609e+9 
        940.126      2.26937e+9 
         940.37      2.53433e+9 
        940.555      2.73215e+9 
         940.74      2.92474e+9 
        940.926      3.08577e+9 
        941.111      3.23926e+9 
        941.296      3.38453e+9 
        941.481      3.51488e+9 
        941.666      3.63529e+9 
        941.851      3.74748e+9 
        942.037      3.85084e+9 
        942.222       3.9438e+9 
        942.407      4.02419e+9 
        942.592      4.09258e+9 
        942.777      4.14847e+9 
        942.877      4.17313e+9 
        942.962      4.19114e+9 
        943.048      4.20606e+9 
        943.218      4.22497e+9 
        943.388      4.21771e+9 
        943.558      4.19308e+9 
        943.728      4.15008e+9 
        943.898      4.08787e+9 
        944.068      4.00465e+9 
        944.239      3.89391e+9 
        944.409      3.76247e+9 
        944.579      3.61139e+9 
        944.749      3.44262e+9 
        944.919       3.2692e+9 
        945.089      3.08491e+9 
        945.115      3.05598e+9 
        945.212      2.94783e+9 
         945.26      2.89313e+9 
        945.308      2.83811e+9 
          945.5      2.63102e+9 
        945.692      2.42728e+9 
        945.884      2.22472e+9 
        946.076       2.0348e+9 
        946.268      1.85132e+9 
        946.461       1.6856e+9 
        946.532      1.62822e+9 
        946.653       1.5337e+9 
        946.689      1.50673e+9 
        946.845      1.39535e+9 
        947.002      1.28955e+9 
        947.158       1.1891e+9 
        947.314      1.09356e+9 
        947.472       1.0023e+9 
        947.487      9.93764e+8 
        947.628      9.14917e+8 
        947.636      9.10811e+8 
        947.785       8.3053e+8 
        947.934      7.51149e+8 
        948.083      6.73184e+8 
        948.217      6.03377e+8 
        948.232      5.95549e+8 
        948.381      5.19343e+8 
        948.546      4.33021e+8 
        948.643      3.80573e+8 
        948.661      3.70651e+8 
         948.71      3.42679e+8 
        948.777      3.03527e+8 
        948.835      2.67159e+8 
        948.893      2.27333e+8 
        948.922      2.04742e+8 
        948.951      1.79377e+8 
        948.966      1.66492e+8 
         948.98       1.5694e+8 
        948.994      1.49389e+8 
        949.009      1.44553e+8 
        949.023      1.43181e+8 
        949.037      1.44575e+8 
        949.052      1.49438e+8 
        949.066      1.57016e+8 
        949.095      1.79518e+8 
        949.153      2.27641e+8 
         949.23      2.79811e+8 
        949.258      2.97726e+8 
        949.269       3.0426e+8 
         949.28      3.10825e+8 
         949.33      3.40181e+8 
         949.36      3.57542e+8 
         949.43      3.96742e+8 
          949.5      4.34891e+8 
         949.64      5.09623e+8 
        949.781      5.82489e+8 
        949.795      5.89715e+8 
        949.879      6.33936e+8 
        949.921      6.56115e+8 
        949.963      6.78367e+8 
        950.131      7.67959e+8 
        950.299      8.59458e+8 
        950.467      9.52958e+8 
        950.635      1.05082e+9 
        950.719      1.10179e+9 
        950.804      1.15412e+9 
        950.888      1.20807e+9 
        951.056      1.32125e+9 
        951.224      1.44227e+9 
        951.392      1.57323e+9 
         951.56      1.71854e+9 
        951.728      1.87687e+9 
        951.896      2.05983e+9 
        952.065      2.25638e+9 
        952.233       2.4699e+9 
        952.401      2.70345e+9 
        952.569      2.95184e+9 
        952.688      3.13697e+9 
        952.737      3.22305e+9 
        952.788      3.31451e+9 
        952.888      3.49892e+9 
        953.089      3.88794e+9 
        953.289      4.30109e+9 
        953.489      4.75097e+9 
        953.689      5.21712e+9 
        953.889      5.69382e+9 
        954.089      6.15938e+9 
         954.29      6.59932e+9 
         954.49      7.03132e+9 
         954.69      7.45384e+9 
         954.89      7.85027e+9 
         955.09      8.20273e+9 
         955.29      8.54538e+9 
        955.491      8.87729e+9 
        955.691      9.19777e+9 
        955.768      9.31825e+9 
        955.891      9.50238e+9 
        956.014       9.6811e+9 
         956.26     1.00236e+10 
        956.506      1.0348e+10 
        956.753     1.06537e+10 
        956.999     1.09415e+10 
        957.245     1.12114e+10 
        957.491     1.14609e+10 
        957.738     1.16898e+10 
        957.984     1.18976e+10 
         958.23     1.20839e+10 
        958.476     1.22506e+10 
        958.722     1.23946e+10 
        958.969     1.25155e+10 
        959.141      1.2586e+10 
        959.215     1.26127e+10 
        959.289     1.26372e+10 
        959.437     1.26786e+10 
        959.733     1.27342e+10 
        960.029     1.27534e+10 
        960.222      1.2746e+10 
        960.326     1.27355e+10 
         960.43     1.27202e+10 
        960.638     1.26686e+10 
        960.846     1.25984e+10 
        961.054     1.25096e+10 
        961.262      1.2402e+10 
        961.471     1.22758e+10 
        961.679     1.21317e+10 
        961.887     1.19693e+10 
        962.095     1.17884e+10 
        962.303     1.15894e+10 
        962.512     1.13727e+10 
         962.72     1.11385e+10 
        962.928     1.08874e+10 
        963.136     1.06205e+10 
        963.344     1.03386e+10 
        963.552     1.00424e+10 
        963.706      9.81481e+9 
        963.761      9.73335e+9 
        963.969      9.41202e+9 
        964.231      8.99262e+9 
        964.493      8.55569e+9 
        964.755      8.10773e+9 
         965.28      7.19296e+9 
        965.804      6.27426e+9 
        966.066      5.82213e+9 
        966.329      5.37872e+9 
        966.591      4.94754e+9 
        966.853      4.53128e+9 
        967.115      4.13255e+9 
        967.246      3.94044e+9 
        967.377      3.75332e+9 
        967.509      3.57165e+9 
         967.64      3.39556e+9 
        967.771      3.22516e+9 
        967.772       3.2239e+9 
        967.902       3.0607e+9 
        968.032      2.90322e+9 
        968.162       2.7517e+9 
        968.292      2.60643e+9 
        968.422      2.46696e+9 
        968.552      2.33342e+9 
        968.683      2.20551e+9 
        968.813      2.08347e+9 
        968.849      2.05064e+9 
        968.943      1.96687e+9 
        968.961      1.95117e+9 
        969.073      1.85577e+9 
        969.185      1.76427e+9 
        969.297      1.67675e+9 
        969.409      1.59273e+9 
        969.521       1.5122e+9 
        969.564      1.48217e+9 
        969.633      1.43498e+9 
        969.745      1.36077e+9 
        969.927       1.2467e+9 
        970.108      1.13908e+9 
        970.289      1.03719e+9 
         970.47      9.39424e+8 
        970.651      8.44548e+8 
        970.706      8.16173e+8 
        970.737      8.00113e+8 
         970.79      7.72945e+8 
        970.832      7.51356e+8 
        970.874       7.2977e+8 
         970.89      7.21756e+8 
        971.042      6.42682e+8 
         971.11      6.07047e+8 
        971.196      5.62018e+8 
        971.229      5.43668e+8 
        971.348      4.78606e+8 
        971.467      4.11828e+8 
        971.585      3.39091e+8 
        971.644      2.98517e+8 
        971.703      2.50731e+8 
        971.732      2.22816e+8 
        971.762      1.90386e+8 
        971.778      1.74334e+8 
        971.792      1.63846e+8 
        971.806      1.55975e+8 
        971.821      1.51443e+8 
        971.836      1.50048e+8 
        971.851      1.51467e+8 
        971.866      1.56026e+8 
         971.88      1.63923e+8 
         971.91      1.90531e+8 
        971.969      2.51056e+8 
        972.037      3.05495e+8 
        972.087      3.39867e+8 
        972.137       3.7139e+8 
         972.15      3.79608e+8 
        972.237      4.31234e+8 
        972.324      4.80563e+8 
        972.499      5.76611e+8 
        972.548      6.03019e+8 
        972.673      6.69407e+8 
        972.798      7.35023e+8 
        973.048      8.65964e+8 
        973.173      9.32673e+8 
        973.298      1.00075e+9 
        973.351      1.03013e+9 
        973.423      1.07057e+9 
        973.548      1.14255e+9 
        973.746      1.26185e+9 
        973.943      1.38903e+9 
         974.14      1.52522e+9 
        974.337      1.67185e+9 
        974.534      1.82971e+9 
        974.731      2.00026e+9 
        974.928      2.18385e+9 
        975.126      2.38116e+9 
        975.323      2.59262e+9 
          975.4      2.67932e+9 
         975.52      2.81889e+9 
         975.64       2.9644e+9 
         975.76      3.11567e+9 
         975.88      3.27257e+9 
            976      3.43533e+9 
         976.12      3.60391e+9 
         976.24      3.77833e+9 
        976.361      3.95872e+9 
        976.481       4.1448e+9 
        976.601      4.33653e+9 
        976.721       4.5342e+9 
        976.961      4.94628e+9 
        977.201      5.38111e+9 
        977.441      5.83764e+9 
        977.682      6.31492e+9 
        977.922       6.8127e+9 
        978.162      7.32943e+9 
        978.402      7.86438e+9 
         978.46       7.9962e+9 
        978.642      8.41636e+9 
        978.671      8.48422e+9 
        978.883      8.98433e+9 
        979.094      9.49565e+9 
        979.305     1.00176e+10 
        979.727     1.10821e+10 
        980.149     1.21755e+10 
        980.572     1.32902e+10 
        980.599      1.3362e+10 
        981.416     1.55554e+10 
        981.429     1.55918e+10 
        982.261     1.78261e+10 
        983.092     2.00243e+10 
