# Koester WD models
# teff = 27000 K (value for the effective temperature for the model. Temperatures are given in K)
# logg = 7.25 log(cm/s2) (value for Log(G) for the model.)
#
# column 1: WAVELENGTH (ANGSTROM), Wavelength in Angstrom
# column 2: FLUX (ERG/CM2/S/A), Flux in erg/cm2/s/A
         899.23      4.17716e+8 
        904.235      4.26248e+8 
         908.45      4.33455e+8 
        909.241      4.34806e+8 
        910.032      4.36154e+8 
        911.193      4.38123e+8 
        911.613      4.38827e+8 
        911.824      4.39173e+8 
        911.929      4.39342e+8 
        912.034      4.39512e+8 
        912.139      4.41922e+8 
        912.244      4.44297e+8 
        912.349      4.46628e+8 
        912.454      4.48918e+8 
        912.559      4.51164e+8 
        912.664      4.53363e+8 
         912.77      4.55506e+8 
        912.875      4.57579e+8 
        912.886       4.5779e+8 
        913.085      4.61311e+8 
        913.284       4.6391e+8 
        913.339      4.64698e+8 
        913.435      4.65873e+8 
        913.483      4.66256e+8 
        913.531      4.66721e+8 
        913.625      4.68094e+8 
        913.724      4.68751e+8 
        913.822      4.68754e+8 
        913.871      4.69502e+8 
        914.018      4.70846e+8 
        914.165      4.68644e+8 
        914.312      4.71999e+8 
        914.343      4.72137e+8 
        914.459      4.69373e+8 
        914.575      4.64525e+8 
        914.692      4.69552e+8 
        914.808      4.71446e+8 
        914.924      4.65549e+8 
        915.009      4.57099e+8 
         915.04      4.54284e+8 
        915.071      4.53162e+8 
        915.133      4.57212e+8 
        915.257      4.68345e+8 
        915.381      4.68839e+8 
        915.505       4.5621e+8 
        915.609      4.38105e+8 
        915.617      4.36729e+8 
         915.63      4.34435e+8 
        915.643      4.32503e+8 
        915.677      4.31325e+8 
        915.745      4.42167e+8 
        915.881      4.71522e+8 
        916.017      4.84528e+8 
        916.153      4.76784e+8 
        916.289      4.46719e+8 
        916.379      4.19726e+8 
        916.421      4.12658e+8 
        916.425      4.12573e+8 
        916.429      4.12614e+8 
        916.479      4.22406e+8 
         916.58      4.59156e+8 
         916.68      4.91898e+8 
         916.78      5.13016e+8 
         916.88      5.20907e+8 
         916.98      5.13101e+8 
         917.08       4.8946e+8 
         917.18      4.51959e+8 
        917.182       4.5117e+8 
         917.28      4.05328e+8 
        917.378      3.71566e+8 
        917.575      4.60642e+8 
        917.771      5.44491e+8 
        917.967      5.78348e+8 
        918.163      5.43671e+8 
        918.359      4.52427e+8 
         918.51      3.65059e+8 
        918.556      3.39173e+8 
        918.602      3.26499e+8 
        918.694      3.66146e+8 
        918.878      4.81631e+8 
        919.062      5.83708e+8 
        919.201      6.39675e+8 
        919.241      6.50501e+8 
        919.246      6.51654e+8 
        919.251      6.52763e+8 
        919.301       6.6178e+8 
        919.402      6.67469e+8 
        919.502      6.59342e+8 
        919.602      6.33901e+8 
        919.702      5.90136e+8 
        919.802      5.41039e+8 
        919.902      4.79834e+8 
        920.002      4.16208e+8 
        920.102       3.5046e+8 
        920.165       3.0897e+8 
        920.189      2.97062e+8 
        920.202      2.93277e+8 
        920.215       2.9199e+8 
        920.265      3.09164e+8 
        920.366      3.75511e+8 
        920.466      4.43609e+8 
        920.566      5.10581e+8 
        920.666      5.77371e+8 
        920.866      7.01273e+8 
        921.066      7.86667e+8 
        921.266      8.22651e+8 
        921.467      8.07122e+8 
        921.667      7.34938e+8 
        921.867      6.21275e+8 
        922.067      4.89689e+8 
         922.13      4.47055e+8 
        922.267      3.50087e+8 
        922.405      2.68819e+8 
        922.542      3.50621e+8 
        922.548      3.54403e+8 
        922.679      4.48921e+8 
         922.81      5.42324e+8 
        922.941      6.34049e+8 
        923.072      7.29629e+8 
        923.203      8.17637e+8 
        923.335      9.02416e+8 
        923.466      9.69329e+8 
        923.597      1.02544e+9 
        923.728      1.06361e+9 
        923.859      1.08433e+9 
         923.99      1.08805e+9 
        924.121      1.07358e+9 
        924.252      1.03941e+9 
        924.384      9.86102e+8 
        924.515      9.21102e+8 
        924.646      8.41174e+8 
        924.777       7.5364e+8 
        924.908      6.62229e+8 
        925.039      5.67925e+8 
         925.17      4.71471e+8 
        925.302      3.76014e+8 
        925.382      3.15733e+8 
        925.433      2.75133e+8 
        925.484      2.53045e+8 
        925.586      3.16066e+8 
        925.688      3.92815e+8 
         925.79      4.68352e+8 
        925.892      5.45299e+8 
        925.994      6.19089e+8 
        926.096      6.98043e+8 
        926.198      7.74164e+8 
        926.232      7.99642e+8 
        926.301      8.51865e+8 
        926.369      9.05768e+8 
        926.505      1.00774e+9 
        926.641      1.10943e+9 
        926.777      1.20904e+9 
        926.913      1.29915e+9 
        927.049       1.3789e+9 
        927.185      1.44765e+9 
        927.322      1.50157e+9 
        927.458      1.54222e+9 
        927.594      1.56871e+9 
         927.73      1.58193e+9 
        927.822      1.58275e+9 
        927.866      1.58075e+9 
        928.002      1.56418e+9 
        928.182      1.51228e+9 
        928.363       1.4297e+9 
        928.543       1.3253e+9 
        928.723      1.20072e+9 
        928.903      1.06886e+9 
        929.039      9.71041e+8 
        929.077      9.43204e+8 
        929.083      9.38764e+8 
        929.089       9.3431e+8 
        929.139      8.96783e+8 
        929.173      8.70843e+8 
        929.217      8.36823e+8 
        929.239      8.20647e+8 
        929.261      8.04527e+8 
         929.35       7.3971e+8 
        929.475      6.46892e+8 
        929.509      6.21033e+8 
        929.526      6.08505e+8 
        929.543      5.96023e+8 
        929.611      5.45468e+8 
        929.681       4.9132e+8 
        929.725      4.57915e+8 
        929.747      4.41092e+8 
        929.769      4.23521e+8 
        929.827      3.78241e+8 
        929.831      3.75087e+8 
        929.857      3.53809e+8 
        929.883      3.33653e+8 
         929.91      3.11009e+8 
        929.939      2.84895e+8 
        929.954      2.71375e+8 
        929.968      2.59609e+8 
        929.982      2.50212e+8 
        929.996      2.44192e+8 
         930.01       2.4213e+8 
        930.024      2.44228e+8 
        930.038      2.50286e+8 
        930.052      2.59724e+8 
        930.081      2.85106e+8 
        930.137       3.3408e+8 
        930.201      3.85194e+8 
        930.247      4.21256e+8 
        930.249      4.22884e+8 
        930.251      4.24514e+8 
        930.301      4.63715e+8 
        930.326      4.81678e+8 
        930.329      4.84079e+8 
        930.402      5.41548e+8 
        930.478      5.98866e+8 
         930.48      5.99988e+8 
         930.63      7.14879e+8 
        930.781      8.29047e+8 
        930.931      9.49546e+8 
        931.081      1.06803e+9 
        931.232      1.19647e+9 
        931.383      1.33479e+9 
        931.534      1.47366e+9 
        931.684      1.61294e+9 
        931.788      1.71265e+9 
        931.832      1.75542e+9 
        931.835      1.75832e+9 
        931.838      1.76122e+9 
        931.888      1.80912e+9 
        931.988      1.90321e+9 
        932.188      2.07619e+9 
        932.389      2.23605e+9 
        932.589      2.37957e+9 
        932.789      2.49971e+9 
        932.989       2.5922e+9 
        933.189      2.66472e+9 
        933.347      2.70648e+9 
        933.375      2.71231e+9 
        933.377      2.71271e+9 
        933.389      2.71505e+9 
        933.403      2.71766e+9 
        933.432      2.72152e+9 
         933.46      2.72465e+9 
        933.542      2.73037e+9 
        933.652      2.72956e+9 
        933.762      2.71752e+9 
        933.872      2.69491e+9 
        933.982       2.6609e+9 
        934.092      2.61492e+9 
        934.202      2.55762e+9 
        934.312      2.48941e+9 
        934.413      2.42005e+9 
        934.422      2.41386e+9 
        934.533      2.33376e+9 
        934.652      2.23868e+9 
        934.771      2.13712e+9 
         934.89      2.03739e+9 
        935.009      1.93181e+9 
        935.026      1.91629e+9 
        935.128      1.82394e+9 
         935.23      1.73387e+9 
        935.434      1.55459e+9 
        935.542      1.46361e+9 
        935.639      1.38205e+9 
        935.693      1.33775e+9 
        935.843      1.21361e+9 
        935.994      1.08983e+9 
        936.144      9.70664e+8 
         936.29      8.55641e+8 
        936.294      8.52207e+8 
        936.372      7.93017e+8 
        936.445      7.37724e+8 
        936.486      7.06463e+8 
        936.601      6.18583e+8 
        936.715       5.3015e+8 
        936.829       4.3824e+8 
        936.887       3.8979e+8 
        936.944      3.40269e+8 
        936.973      3.12973e+8 
        937.001      2.83423e+8 
        937.015      2.68577e+8 
        937.029      2.54911e+8 
        937.043      2.43956e+8 
        937.058      2.36891e+8 
        937.072      2.34684e+8 
        937.086      2.36926e+8 
        937.101      2.44031e+8 
        937.115      2.55026e+8 
        937.143      2.83629e+8 
         937.15      2.91071e+8 
        937.186      3.27728e+8 
        937.199      3.39814e+8 
         937.25      3.84603e+8 
        937.314      4.38406e+8 
        937.341      4.60639e+8 
        937.442      5.42352e+8 
        937.543      6.21149e+8 
        937.645      7.00007e+8 
        937.694      7.37941e+8 
        937.847      8.56276e+8 
            938      9.79385e+8 
        938.153      1.10447e+9 
        938.306      1.23604e+9 
        938.459      1.37059e+9 
        938.612      1.51085e+9 
        938.617      1.51557e+9 
        938.766      1.65858e+9 
        938.914      1.81472e+9 
        939.062      1.97901e+9 
        939.149      2.08432e+9 
         939.21      2.15919e+9 
        939.271      2.23473e+9 
        939.393      2.38926e+9 
        939.515      2.56329e+9 
        939.637      2.74427e+9 
         939.76      2.93109e+9 
        939.882      3.13435e+9 
            940       3.3342e+9 
        940.004      3.34099e+9 
        940.126      3.54865e+9 
        940.185      3.64899e+9 
         940.37      3.95932e+9 
        940.555      4.26339e+9 
         940.69       4.4796e+9 
         940.74      4.55716e+9 
         940.79       4.6237e+9 
        940.891      4.75427e+9 
        941.091      5.00497e+9 
        941.291      5.24084e+9 
        941.491      5.45296e+9 
        941.691      5.64783e+9 
        941.891      5.82765e+9 
        942.092      5.99083e+9 
        942.292      6.13424e+9 
        942.492      6.25614e+9 
        942.692      6.35742e+9 
        942.737      6.37718e+9 
        942.892      6.43643e+9 
        943.048      6.48189e+9 
        943.203      6.50963e+9 
        943.358      6.50596e+9 
        943.513      6.48035e+9 
        943.668      6.43285e+9 
        943.823      6.36235e+9 
        943.978      6.26807e+9 
        944.134      6.14097e+9 
        944.289       5.9821e+9 
        944.444      5.79709e+9 
        944.599      5.58713e+9 
        944.754      5.35472e+9 
        944.909      5.11404e+9 
        945.064      4.85769e+9 
        945.131      4.74308e+9 
         945.22       4.5898e+9 
        945.308      4.43401e+9 
        945.484      4.13921e+9 
         945.66      3.84968e+9 
        945.836      3.56012e+9 
        946.012      3.28353e+9 
        946.188       3.0153e+9 
        946.365      2.75904e+9 
        946.541      2.52707e+9 
        946.717      2.30859e+9 
        946.893      2.11171e+9 
         946.98      2.01798e+9 
        947.069      1.92466e+9 
        947.158      1.83422e+9 
        947.336      1.66068e+9 
        947.515      1.49636e+9 
        947.693      1.34046e+9 
        947.871      1.18996e+9 
        947.947      1.12684e+9 
        948.015      1.07147e+9 
        948.049      1.04387e+9 
        948.083      1.01638e+9 
        948.219      9.07232e+8 
        948.355      8.01398e+8 
        948.437       7.3769e+8 
        948.491      6.95451e+8 
         948.53      6.64764e+8 
        948.546      6.52905e+8 
        948.654      5.67164e+8 
        948.661      5.61443e+8 
        948.777      4.63806e+8 
        948.835      4.11919e+8 
        948.893      3.55807e+8 
        948.922      3.24099e+8 
        948.951      2.87708e+8 
        948.966      2.68644e+8 
         948.98       2.5328e+8 
        948.994       2.4132e+8 
        949.009      2.33495e+8 
        949.023      2.31139e+8 
        949.037      2.33529e+8 
        949.052      2.41392e+8 
        949.066      2.53391e+8 
        949.095      2.87914e+8 
        949.153      3.56244e+8 
         949.23       4.2983e+8 
        949.258       4.5544e+8 
        949.269      4.64827e+8 
         949.28      4.74283e+8 
         949.33      5.16968e+8 
         949.36      5.42264e+8 
         949.43      5.99419e+8 
          949.5      6.55456e+8 
         949.64      7.66326e+8 
        949.795      8.87214e+8 
        949.879      9.54909e+8 
        949.921      9.89014e+8 
        949.963      1.02335e+9 
        950.131      1.16245e+9 
        950.299      1.30608e+9 
        950.467      1.45409e+9 
        950.635      1.60982e+9 
        950.719      1.69108e+9 
        950.804      1.77468e+9 
        950.888      1.86092e+9 
        951.056      2.04193e+9 
        951.224      2.23525e+9 
        951.392      2.44479e+9 
         951.56      2.67847e+9 
        951.728      2.93203e+9 
        951.896      3.22048e+9 
        952.065      3.52744e+9 
        952.233      3.85841e+9 
        952.401      4.21935e+9 
        952.569      4.60206e+9 
        952.688      4.88628e+9 
        952.737      5.01854e+9 
        952.788      5.15872e+9 
        952.888      5.44036e+9 
        953.089      6.02982e+9 
        953.289      6.64921e+9 
        953.489      7.31174e+9 
        953.689      7.99061e+9 
        953.889      8.67824e+9 
        954.089      9.33826e+9 
         954.29      9.95021e+9 
         954.49     1.05464e+10 
         954.69     1.11254e+10 
         954.89     1.16667e+10 
         955.09     1.21488e+10 
         955.29     1.26154e+10 
        955.491     1.30658e+10 
        955.691     1.34995e+10 
        955.768     1.36622e+10 
        955.891     1.39113e+10 
        956.014      1.4153e+10 
         956.26     1.46121e+10 
        956.506     1.50453e+10 
        956.753     1.54521e+10 
        956.999     1.58339e+10 
        957.245     1.61912e+10 
        957.491     1.65206e+10 
        957.738     1.68221e+10 
        957.984     1.70955e+10 
         958.23     1.73404e+10 
        958.476     1.75591e+10 
        958.722     1.77481e+10 
        958.969     1.79069e+10 
        959.141     1.79996e+10 
        959.215     1.80348e+10 
        959.289     1.80673e+10 
        959.437     1.81202e+10 
        959.733     1.81914e+10 
        960.029     1.82156e+10 
        960.222     1.82057e+10 
        960.326     1.81919e+10 
         960.43     1.81721e+10 
        960.638     1.81043e+10 
        960.846     1.80124e+10 
        961.054     1.78965e+10 
        961.262     1.77562e+10 
        961.471     1.75915e+10 
        961.679     1.74035e+10 
        961.887     1.71915e+10 
        962.095     1.69549e+10 
        962.303     1.66943e+10 
        962.512     1.64098e+10 
         962.72     1.61017e+10 
        962.928     1.57704e+10 
        963.136      1.5417e+10 
        963.344     1.50424e+10 
        963.552     1.46474e+10 
        963.706     1.43428e+10 
        963.761     1.42335e+10 
        963.969     1.38015e+10 
        964.231     1.32344e+10 
        964.493     1.26404e+10 
        964.755     1.20273e+10 
         965.28     1.07617e+10 
        965.804      9.47096e+9 
        966.066      8.82744e+9 
        966.329      8.19101e+9 
        966.591      7.56649e+9 
        966.853      6.95769e+9 
        967.115      6.36911e+9 
        967.377      5.80387e+9 
        967.509      5.53093e+9 
         967.64      5.26506e+9 
        967.771      5.00647e+9 
        967.772      5.00453e+9 
        967.902      4.75562e+9 
        968.032      4.51415e+9 
        968.162      4.28073e+9 
        968.292      4.05589e+9 
        968.422      3.83909e+9 
        968.552      3.63055e+9 
        968.683      3.43005e+9 
        968.813      3.23795e+9 
        968.849      3.18611e+9 
        968.943      3.05376e+9 
        968.961      3.02891e+9 
        969.073      2.87761e+9 
        969.185      2.73223e+9 
        969.297      2.59284e+9 
        969.409      2.45885e+9 
        969.521      2.33023e+9 
        969.564      2.28228e+9 
        969.633      2.20694e+9 
        969.745      2.08842e+9 
        969.927      1.90637e+9 
        970.108      1.73501e+9 
        970.289      1.57334e+9 
         970.47      1.41903e+9 
        970.651      1.27033e+9 
        970.706      1.22609e+9 
        970.737      1.20114e+9 
         970.79      1.15903e+9 
        970.832       1.1257e+9 
        970.874      1.09248e+9 
        971.042      9.59603e+8 
         971.11      9.05859e+8 
        971.229      8.11294e+8 
        971.348      7.15466e+8 
        971.467      6.18316e+8 
        971.585      5.13157e+8 
        971.644      4.55506e+8 
        971.703      3.88785e+8 
        971.732       3.4932e+8 
        971.762      3.02135e+8 
        971.778      2.77475e+8 
        971.792      2.60349e+8 
        971.806      2.46828e+8 
        971.821      2.38788e+8 
        971.836      2.36197e+8 
        971.851      2.38824e+8 
        971.866      2.46901e+8 
         971.88       2.6046e+8 
         971.91      3.02344e+8 
        971.969      3.89243e+8 
        972.037      4.65396e+8 
        972.087      5.14222e+8 
        972.137       5.5975e+8 
         972.15      5.71789e+8 
        972.237      6.46282e+8 
        972.324      7.18102e+8 
        972.499      8.59819e+8 
        972.548      8.99237e+8 
        972.673       9.9935e+8 
        972.798      1.09946e+9 
        972.923      1.19999e+9 
        973.048      1.30201e+9 
        973.173      1.40626e+9 
        973.298      1.51314e+9 
        973.351      1.55944e+9 
        973.423      1.62323e+9 
        973.548      1.73709e+9 
        973.746       1.9263e+9 
        973.943      2.12847e+9 
         974.14      2.34505e+9 
        974.337       2.5781e+9 
        974.534      2.82844e+9 
        974.731      3.09792e+9 
        974.928      3.38654e+9 
        975.126      3.69502e+9 
        975.323      4.02372e+9 
          975.4      4.15787e+9 
         975.52      4.37313e+9 
         975.64      4.59668e+9 
         975.76      4.82809e+9 
         975.88      5.06701e+9 
            976      5.31385e+9 
         976.12      5.56825e+9 
         976.24      5.83029e+9 
        976.361      6.10009e+9 
        976.481      6.37696e+9 
        976.721      6.95269e+9 
        976.961      7.55669e+9 
        977.201      8.18803e+9 
        977.441      8.84525e+9 
        977.682      9.52635e+9 
        977.922     1.02304e+10 
        978.162     1.09552e+10 
        978.402     1.16989e+10 
        978.642     1.24599e+10 
        978.941     1.34257e+10 
        979.123     1.40258e+10 
        979.305     1.46324e+10 
        979.669     1.58545e+10 
