# Koester WD models
# teff = 27000 K (value for the effective temperature for the model. Temperatures are given in K)
# logg = 9.5 log(cm/s2) (value for Log(G) for the model.)
#
# column 1: WAVELENGTH (ANGSTROM), Wavelength in Angstrom
# column 2: FLUX (ERG/CM2/S/A), Flux in erg/cm2/s/A
         899.23      5.70802e+8 
        904.235      5.81082e+8 
         908.45      5.89724e+8 
        909.241      5.91336e+8 
        910.032      5.92944e+8 
        911.193      5.95285e+8 
        911.613      5.96123e+8 
        912.034      5.96956e+8 
        912.465        5.982e+8 
        912.875      5.99353e+8 
        913.037      5.99802e+8 
        913.241      6.00355e+8 
        913.284      6.00468e+8 
        913.478      6.00977e+8 
        913.531      6.01115e+8 
        913.755      6.01672e+8 
        913.822      6.01832e+8 
         914.08      6.02419e+8 
        914.165      6.02601e+8 
        914.499      6.03242e+8 
        914.575      6.03365e+8 
        915.071      6.03971e+8 
         915.54       6.0399e+8 
        915.609      6.03955e+8 
        915.643      6.03933e+8 
        915.677      6.04433e+8 
        915.741      6.05366e+8 
        915.813      6.06409e+8 
        916.085      6.09786e+8 
        916.429       6.1311e+8 
        916.858      6.17879e+8 
        917.118      6.18118e+8 
        917.248      6.17643e+8 
        917.378      6.17816e+8 
        917.509      6.19563e+8 
        917.639      6.22013e+8 
        917.769      6.23895e+8 
        917.899       6.2442e+8 
        918.029      6.24011e+8 
        918.159      6.21913e+8 
        918.237      6.20204e+8 
        918.289      6.18561e+8 
         918.42      6.14775e+8 
        918.602      6.11335e+8 
        918.784        6.165e+8 
        918.966      6.23612e+8 
        919.045      6.25824e+8 
        919.148       6.2774e+8 
        919.251       6.2851e+8 
        919.354      6.30449e+8 
        919.458      6.30552e+8 
        919.561      6.28494e+8 
        919.664      6.25768e+8 
        919.767      6.20747e+8 
         919.87      6.14829e+8 
        919.973      6.07647e+8 
        920.143      5.96862e+8 
        920.179      5.95869e+8 
        920.215      5.95985e+8 
        920.287      5.99887e+8 
        920.432      6.15158e+8 
        920.576      6.32104e+8 
         920.72       6.4697e+8 
        920.864      6.58603e+8 
        921.008      6.67375e+8 
        921.152      6.71625e+8 
        921.296      6.70868e+8 
        921.441      6.65703e+8 
        921.585      6.56137e+8 
        921.729      6.39148e+8 
        921.873      6.21624e+8 
        921.918      6.14496e+8 
        922.017      5.98134e+8 
         922.04      5.94392e+8 
        922.161      5.73118e+8 
        922.283      5.52267e+8 
        922.355      5.43068e+8 
        922.405       5.4124e+8 
        922.455      5.44284e+8 
        922.555      5.60894e+8 
        922.655      5.81298e+8 
          922.7      5.90575e+8 
        922.755      6.02683e+8 
         922.81      6.13776e+8 
         922.92      6.38073e+8 
         923.03      6.59493e+8 
         923.14      6.80654e+8 
         923.25      6.99306e+8 
        923.361      7.14423e+8 
        923.471      7.27495e+8 
        923.581      7.38381e+8 
        923.691      7.45381e+8 
        923.801      7.48695e+8 
        923.911      7.48654e+8 
        924.021      7.44828e+8 
        924.131      7.39864e+8 
        924.241      7.30637e+8 
        924.352      7.16911e+8 
        924.462      6.98649e+8 
        924.572      6.76526e+8 
        924.682       6.5555e+8 
        924.792      6.27964e+8 
        924.902       6.0012e+8 
        925.012      5.71509e+8 
        925.122       5.4048e+8 
        925.201      5.17411e+8 
        925.343      4.78958e+8 
        925.484      4.51915e+8 
        925.625       4.8067e+8 
        925.766      5.21731e+8 
        925.907      5.64871e+8 
        926.048      6.10437e+8 
        926.189      6.54438e+8 
        926.293      6.87167e+8 
        926.331      6.97999e+8 
        926.369      7.08109e+8 
        926.445      7.30288e+8 
        926.597      7.74773e+8 
        926.749         8.13e+8 
        926.901      8.44121e+8 
        927.053      8.73727e+8 
        927.205      8.97434e+8 
        927.358       9.1398e+8 
         927.51      9.24602e+8 
        927.662      9.29839e+8 
        927.814      9.28557e+8 
        927.966      9.20367e+8 
        928.054      9.12636e+8 
        928.118      9.06205e+8 
        928.182      8.98354e+8 
        928.311      8.77921e+8 
        928.439       8.5146e+8 
        928.567      8.19104e+8 
        928.695      7.89489e+8 
        928.823      7.55324e+8 
        928.951      7.16198e+8 
        929.039      6.87233e+8 
        929.069      6.76705e+8 
        929.079      6.73118e+8 
        929.089      6.69495e+8 
        929.139      6.55877e+8 
        929.173      6.46075e+8 
        929.217      6.32635e+8 
        929.239      6.25717e+8 
        929.261      6.18592e+8 
         929.35      5.88496e+8 
        929.475      5.48651e+8 
        929.509       5.3752e+8 
        929.526      5.31711e+8 
        929.543      5.25705e+8 
        929.611       5.0236e+8 
        929.681      4.79655e+8 
        929.725      4.64042e+8 
        929.747      4.56206e+8 
        929.769      4.49496e+8 
        929.827      4.29465e+8 
        929.831      4.28105e+8 
        929.857       4.1945e+8 
        929.883      4.09912e+8 
         929.91      4.01081e+8 
        929.939      3.92234e+8 
        929.954      3.88232e+8 
        929.968      3.85543e+8 
        929.982      3.83472e+8 
        929.996      3.82231e+8 
         930.01      3.81867e+8 
        930.024      3.82288e+8 
        930.038      3.83582e+8 
        930.052      3.85712e+8 
        930.081      3.92523e+8 
        930.137      4.10459e+8 
        930.201      4.32968e+8 
        930.247      4.49348e+8 
        930.249      4.50021e+8 
        930.251      4.50683e+8 
        930.301      4.67789e+8 
        930.326      4.76379e+8 
        930.402      5.02259e+8 
        930.478      5.28919e+8 
         930.63      5.80827e+8 
        930.633      5.81876e+8 
        930.782      6.35186e+8 
        930.931       6.8356e+8 
         931.08      7.41903e+8 
        931.229      7.97053e+8 
        931.379      8.49264e+8 
        931.528      9.03195e+8 
        931.788      9.98213e+8 
        931.814       1.0067e+9 
        931.826      1.01055e+9 
        931.838      1.01436e+9 
        931.888      1.02976e+9 
        931.988      1.05853e+9 
        932.188      1.11731e+9 
        932.389      1.16682e+9 
        932.589       1.2077e+9 
        932.789      1.24072e+9 
        932.989      1.26652e+9 
        933.189      1.28561e+9 
        933.347      1.29639e+9 
        933.375      1.29783e+9 
        933.377      1.29792e+9 
        933.389      1.29849e+9 
        933.403      1.29911e+9 
        933.432      1.30002e+9 
         933.46      1.30072e+9 
        933.542      1.30183e+9 
        933.652      1.30101e+9 
        933.762      1.29717e+9 
        933.872      1.29047e+9 
        933.982      1.28122e+9 
        934.092       1.2694e+9 
        934.202      1.25446e+9 
        934.312      1.23628e+9 
        934.413      1.21681e+9 
        934.422      1.21497e+9 
        934.533      1.19052e+9 
        934.652       1.1601e+9 
        934.771      1.12596e+9 
         934.89      1.09258e+9 
        935.009      1.05633e+9 
        935.026      1.05092e+9 
        935.128      1.01955e+9 
         935.23      9.89548e+8 
        935.332      9.57221e+8 
        935.434      9.22896e+8 
        935.537      8.86576e+8 
        935.639      8.49458e+8 
        935.843      7.77827e+8 
         935.95      7.39393e+8 
        936.047      7.03035e+8 
        936.144      6.65716e+8 
        936.338      6.00682e+8 
        936.464      5.55641e+8 
        936.532      5.32707e+8 
        936.601      5.08932e+8 
        936.645      4.92193e+8 
        936.714      4.69272e+8 
        936.737      4.61387e+8 
        936.829      4.27901e+8 
        936.887      4.05947e+8 
        936.944      3.82684e+8 
        936.973      3.70623e+8 
        937.001      3.58672e+8 
        937.015      3.52851e+8 
        937.029      3.48403e+8 
        937.043      3.44507e+8 
        937.058      3.41739e+8 
        937.072      3.40907e+8 
        937.086      3.41786e+8 
        937.101      3.44604e+8 
        937.115       3.4855e+8 
        937.143      3.58921e+8 
         937.15       3.6156e+8 
        937.186      3.77453e+8 
        937.199      3.82659e+8 
         937.25      4.03937e+8 
        937.314      4.28538e+8 
        937.341      4.37291e+8 
        937.442      4.74943e+8 
        937.491      4.91565e+8 
        937.543      5.11178e+8 
        937.746      5.82703e+8 
        937.873      6.28783e+8 
            938      6.72197e+8 
        938.127      7.22858e+8 
        938.254      7.72364e+8 
        938.381      8.20716e+8 
        938.508      8.68955e+8 
        938.611      9.10833e+8 
        938.635      9.20656e+8 
        938.763       9.7145e+8 
        938.914      1.02957e+9 
        939.065      1.08529e+9 
        939.161      1.12616e+9 
        939.216      1.14946e+9 
        939.271      1.17261e+9 
        939.381      1.21836e+9 
        939.601      1.31665e+9 
        939.822      1.40898e+9 
        940.042      1.49673e+9 
        940.224      1.56465e+9 
        940.262      1.57895e+9 
        940.353       1.6124e+9 
        940.482      1.65789e+9 
        940.611      1.70113e+9 
         940.69      1.72655e+9 
         940.74      1.74215e+9 
         940.79      1.75655e+9 
        940.891      1.78454e+9 
        941.091      1.83723e+9 
        941.291      1.88575e+9 
        941.491      1.93095e+9 
        941.691      1.97232e+9 
        941.891      2.00963e+9 
        942.092      2.04259e+9 
        942.292      2.07033e+9 
        942.337      2.07595e+9 
        942.492      2.09368e+9 
        942.515      2.09604e+9 
        942.692      2.11276e+9 
         942.87      2.12595e+9 
        942.998       2.1332e+9 
        943.048      2.13551e+9 
        943.098      2.13732e+9 
        943.198      2.14002e+9 
        943.398      2.14073e+9 
        943.598      2.13582e+9 
        943.798      2.12506e+9 
        943.998      2.10822e+9 
        944.199      2.07827e+9 
        944.399      2.03822e+9 
        944.599      1.98953e+9 
        944.799      1.93319e+9 
        944.999      1.87095e+9 
        945.091      1.83954e+9 
          945.2      1.80057e+9 
        945.308      1.75937e+9 
        945.524      1.67334e+9 
         945.74      1.58206e+9 
        945.848      1.53476e+9 
        945.956      1.49395e+9 
        946.064      1.45536e+9 
        946.172      1.41587e+9 
        946.389      1.33495e+9 
        946.484      1.29888e+9 
        946.605      1.25195e+9 
        946.821      1.16864e+9 
        946.908      1.13563e+9 
        947.158      1.04267e+9 
        947.202      1.02674e+9 
        947.496      9.16343e+8 
         947.79      8.03274e+8 
        948.033      7.09381e+8 
        948.083      6.89765e+8 
        948.133      6.71242e+8 
        948.233      6.35013e+8 
        948.321      6.02677e+8 
        948.433      5.60953e+8 
        948.546       5.2125e+8 
        948.658      4.79709e+8 
        948.727      4.53461e+8 
        948.761      4.39722e+8 
        948.763      4.38997e+8 
         948.77       4.3643e+8 
        948.777      4.33819e+8 
        948.827      4.13019e+8 
        948.835      4.09573e+8 
        948.893      3.81923e+8 
        948.922      3.66756e+8 
        948.951      3.51076e+8 
        948.966      3.43027e+8 
         948.98      3.37464e+8 
        948.994      3.32626e+8 
        949.009      3.29377e+8 
        949.023      3.28491e+8 
        949.037      3.29421e+8 
        949.052       3.3272e+8 
        949.066      3.37602e+8 
        949.095      3.51318e+8 
        949.153      3.82388e+8 
         949.23      4.18699e+8 
        949.258      4.30483e+8 
        949.269       4.3479e+8 
         949.28      4.38921e+8 
         949.33      4.59188e+8 
         949.36      4.70909e+8 
         949.43      4.96959e+8 
          949.5      5.23421e+8 
         949.64      5.74446e+8 
        949.781      6.27348e+8 
        949.795      6.32563e+8 
        949.879       6.6374e+8 
        949.921      6.79165e+8 
        949.963      6.95175e+8 
        950.131      7.62273e+8 
        950.299      8.28344e+8 
        950.383       8.6189e+8 
        950.635      9.62245e+8 
        950.888      1.06071e+9 
         951.14      1.16054e+9 
        951.392      1.26509e+9 
        951.644      1.37349e+9 
        951.896      1.48225e+9 
        952.023      1.53684e+9 
        952.149      1.59133e+9 
        952.275      1.65861e+9 
        952.401      1.72851e+9 
        952.568      1.82182e+9 
        952.653      1.86938e+9 
        952.738       1.9178e+9 
        952.908      2.01501e+9 
        953.249      2.20514e+9 
        953.589      2.39917e+9 
        953.759      2.49517e+9 
        953.929      2.58939e+9 
        954.099      2.67471e+9 
         954.27      2.75322e+9 
         954.44      2.83046e+9 
         954.61      2.90634e+9 
         954.78      2.98086e+9 
         954.95      3.05314e+9 
         955.12      3.12364e+9 
        955.247      3.17524e+9 
         955.29      3.19252e+9 
        955.631      3.32525e+9 
        956.014      3.46141e+9 
        956.397      3.58283e+9 
        956.781      3.69404e+9 
        957.164      3.79501e+9 
        957.547      3.88521e+9 
        957.931      3.96425e+9 
        958.314      4.03198e+9 
        958.697      4.08815e+9 
        958.872       4.1098e+9 
        959.081      4.13223e+9 
        959.289      4.15099e+9 
        959.705      4.17571e+9 
        959.813      4.17954e+9 
        960.122      4.18463e+9 
         960.43      4.18118e+9 
        960.738      4.16805e+9 
        961.046      4.14618e+9 
        961.355      4.11539e+9 
        961.663      4.07578e+9 
        961.971       4.0274e+9 
        962.279      3.97022e+9 
        962.588      3.90443e+9 
        962.896      3.83048e+9 
        963.204      3.74833e+9 
        963.512      3.65842e+9 
        963.821      3.56134e+9 
        964.027      3.49267e+9 
        964.129      3.45761e+9 
        964.231      3.42182e+9 
        964.435      3.34809e+9 
        964.843      3.19412e+9 
        965.252      3.03308e+9 
         965.66      2.86696e+9 
        966.068      2.69675e+9 
        966.477      2.52444e+9 
        966.555      2.49134e+9 
        967.293      2.17882e+9 
        968.032      1.87236e+9 
        968.244      1.78561e+9 
        968.771      1.57305e+9 
        969.297      1.36485e+9 
         969.72       1.1992e+9 
        969.823      1.15906e+9 
        969.927      1.11929e+9 
        970.133      1.03978e+9 
        970.216      1.00765e+9 
        970.401       9.3599e+8 
        970.545      8.80105e+8 
        970.874      7.52832e+8 
         971.11      6.61566e+8 
        971.229      6.15457e+8 
        971.348      5.69982e+8 
        971.467      5.23292e+8 
        971.585      4.73667e+8 
        971.644      4.45434e+8 
        971.703      4.11809e+8 
        971.732       3.9181e+8 
        971.762       3.6969e+8 
        971.778       3.5719e+8 
        971.792      3.50002e+8 
        971.806      3.43828e+8 
        971.821      3.39785e+8 
        971.836      3.38529e+8 
        971.851      3.39832e+8 
        971.866      3.43923e+8 
         971.88      3.50143e+8 
         971.91      3.69935e+8 
        971.969      4.12287e+8 
        972.037      4.50828e+8 
        972.087      4.74673e+8 
        972.137      4.96934e+8 
         972.15      5.02551e+8 
        972.199      5.22283e+8 
        972.237      5.37618e+8 
        972.324      5.72225e+8 
        972.499      6.40376e+8 
        972.798      7.58252e+8 
        973.047      8.56734e+8 
        973.396      9.95219e+8 
        973.746      1.13387e+9 
        974.095      1.27404e+9 
        974.444      1.41626e+9 
        974.645      1.49902e+9 
        974.793      1.56057e+9 
        975.143      1.70789e+9 
         975.64      1.92384e+9 
        976.137      2.14711e+9 
        976.635      2.38093e+9 
        977.132      2.62489e+9 
         977.63      2.87888e+9 
        978.127      3.14316e+9 
        978.624      3.41724e+9 
        978.939      3.59637e+9 
        979.122      3.70237e+9 
        979.305      3.80959e+9 
        979.671       4.0274e+9 
        980.404      4.47488e+9 
        981.136      4.93557e+9 
        981.279      5.02715e+9 
        981.869      5.40847e+9 
        982.601       5.8886e+9 
        983.923      6.76269e+9 
        986.516      8.44353e+9 
        986.567      8.47586e+9 
        986.618      8.50812e+9 
         986.72      8.57218e+9 
        986.925       8.6996e+9 
        986.987      8.73815e+9 
        987.333      8.95172e+9 
        988.149      9.44485e+9 
        989.312     1.01159e+10 
        990.475     1.07398e+10 
        991.638      1.1314e+10 
        991.722     1.13534e+10 
        992.801     1.18337e+10 
         993.34     1.20541e+10 
         993.88     1.22608e+10 
        994.419     1.24486e+10 
        994.958     1.26208e+10 
        995.498     1.27762e+10 
        996.037     1.29142e+10 
        996.576     1.30354e+10 
        997.116     1.31378e+10 
        997.655     1.32211e+10 
        997.942     1.32575e+10 
        998.195     1.32846e+10 
        998.447     1.33073e+10 
        998.583     1.33168e+10 
        998.951     1.33359e+10 
        999.319     1.33449e+10 
        1000.06     1.33281e+10 
        1000.79     1.32698e+10 
        1001.53     1.31687e+10 
        1002.26     1.30248e+10 
           1003     1.28379e+10 
        1003.15     1.27938e+10 
        1003.74     1.26067e+10 
        1004.32     1.23926e+10 
        1004.91     1.21499e+10 
        1005.49     1.18805e+10 
        1006.08     1.15864e+10 
        1006.66     1.12688e+10 
        1007.25     1.09288e+10 
        1007.83     1.05678e+10 
        1008.41     1.01885e+10 
        1008.67     1.00172e+10 
           1009      9.79326e+9 
        1009.33      9.56474e+9 
        1009.98      9.09566e+9 
        1010.64      8.61484e+9 
        1010.89      8.43078e+9 
        1011.29      8.12586e+9 
        1012.61      7.13939e+9 
        1013.47      6.49939e+9 
        1014.33      5.87424e+9 
        1014.76      5.57127e+9 
        1015.19       5.2747e+9 
        1015.62      4.98527e+9 
        1016.05      4.70394e+9 
        1016.48      4.43081e+9 
        1016.91      4.16635e+9 
        1017.34      3.91091e+9 
        1017.77      3.66498e+9 
        1017.93       3.5757e+9 
         1018.2      3.42829e+9 
        1018.28      3.38516e+9 
        1018.63      3.20113e+9 
        1018.98      3.02271e+9 
        1019.33      2.85009e+9 
        1019.68      2.68306e+9 
        1020.03      2.52116e+9 
        1020.38      2.36512e+9 
        1020.42      2.34833e+9 
        1020.73      2.21356e+9 
        1021.04      2.08213e+9 
        1021.36      1.95327e+9 
        1021.67      1.82688e+9 
        1022.29      1.57923e+9 
        1022.79      1.38498e+9 
        1022.91      1.33525e+9 
        1023.04      1.28549e+9 
         1023.3      1.18595e+9 
        1023.58      1.07657e+9 
        1023.81      9.84921e+8 
        1024.04      8.92492e+8 
         1024.4      7.47878e+8 
        1024.47      7.19089e+8 
        1024.51       7.0454e+8 
        1024.54       6.8995e+8 
        1024.57      6.76778e+8 
        1024.68      6.30665e+8 
