# Koester WD models
# teff = 29000 K (value for the effective temperature for the model. Temperatures are given in K)
# logg = 9.5 log(cm/s2) (value for Log(G) for the model.)
#
# column 1: WAVELENGTH (ANGSTROM), Wavelength in Angstrom
# column 2: FLUX (ERG/CM2/S/A), Flux in erg/cm2/s/A
         899.23      1.70234e+9 
        904.235      1.72254e+9 
         908.45      1.73935e+9 
        909.241      1.74247e+9 
        910.032      1.74556e+9 
        911.193      1.75005e+9 
        911.613      1.75165e+9 
        912.034      1.75323e+9 
        912.465      1.75529e+9 
        912.875       1.7572e+9 
        913.037      1.75794e+9 
        913.241      1.75885e+9 
        913.284      1.75904e+9 
        913.478      1.75989e+9 
        913.531      1.76011e+9 
        913.755      1.76104e+9 
        913.822      1.76131e+9 
         914.08      1.76231e+9 
        914.165      1.76262e+9 
        914.499      1.76375e+9 
        914.575      1.76398e+9 
        915.071      1.76519e+9 
         915.54      1.76563e+9 
        915.609      1.76564e+9 
        915.643      1.76564e+9 
        915.677      1.76638e+9 
        915.741      1.76776e+9 
        915.813      1.76929e+9 
        916.085      1.77448e+9 
        916.429      1.78002e+9 
        916.858      1.78668e+9 
        917.118      1.78813e+9 
        917.378      1.78911e+9 
        917.639      1.79348e+9 
        917.899      1.79574e+9 
        918.159      1.79334e+9 
        918.237      1.79168e+9 
         918.42      1.78639e+9 
        918.602      1.78289e+9 
        918.681      1.78408e+9 
        918.784      1.78744e+9 
        918.966      1.79391e+9 
        919.251      1.79653e+9 
        919.394      1.80137e+9 
        919.537       1.8012e+9 
        919.679      1.79958e+9 
        919.822      1.79373e+9 
        919.964      1.78535e+9 
        919.999      1.78322e+9 
        920.107      1.77685e+9 
        920.215      1.77584e+9 
        920.323      1.78593e+9 
        920.432      1.80134e+9 
         920.54      1.81706e+9 
        920.648       1.8317e+9 
        920.756      1.84492e+9 
        920.864      1.85417e+9 
        920.972      1.86193e+9 
         921.08      1.86745e+9 
        921.188      1.86927e+9 
        921.296      1.86721e+9 
        921.405      1.86166e+9 
        921.513      1.85208e+9 
        921.621      1.84062e+9 
        921.729      1.82219e+9 
        921.837      1.80477e+9 
        921.945      1.78296e+9 
        922.053      1.75874e+9 
        922.134      1.73884e+9 
        922.269      1.70873e+9 
        922.405      1.69234e+9 
         922.54      1.71689e+9 
        922.675      1.75583e+9 
         922.76       1.7826e+9 
         922.81      1.79707e+9 
         922.86       1.8141e+9 
         922.96      1.84616e+9 
         923.16      1.90388e+9 
        923.361      1.94797e+9 
        923.561      1.98109e+9 
        923.761      1.99692e+9 
        923.961      1.99331e+9 
        924.161      1.97456e+9 
        924.362      1.93632e+9 
        924.562      1.86997e+9 
        924.762      1.80027e+9 
        924.841      1.76453e+9 
        924.962      1.71112e+9 
        925.002      1.69239e+9 
        925.162      1.61223e+9 
        925.324        1.535e+9 
        925.434      1.48865e+9 
        925.484       1.4813e+9 
        925.534      1.49124e+9 
        925.634      1.53836e+9 
        925.734      1.59194e+9 
        925.834      1.65008e+9 
          925.9      1.68753e+9 
        925.934      1.70919e+9 
        926.017      1.75902e+9 
        926.134      1.82584e+9 
        926.251      1.89534e+9 
        926.369      1.95491e+9 
        926.486      2.02022e+9 
        926.603      2.08135e+9 
         926.72      2.13333e+9 
        926.837      2.17954e+9 
        926.954      2.21909e+9 
        927.071      2.26001e+9 
        927.188      2.29168e+9 
        927.306       2.3151e+9 
        927.423       2.3313e+9 
         927.54      2.34243e+9 
        927.657      2.34708e+9 
        927.774      2.34368e+9 
        927.834      2.33874e+9 
        927.891      2.33193e+9 
        928.008      2.31095e+9 
        928.182      2.27395e+9 
        928.357      2.21696e+9 
        928.531      2.13432e+9 
        928.705      2.04852e+9 
        928.879      1.95258e+9 
        928.945      1.91074e+9 
        929.017      1.86168e+9 
        929.053      1.83504e+9 
        929.089      1.80694e+9 
        929.149      1.77327e+9 
        929.205       1.7389e+9 
        929.233      1.72106e+9 
        929.261      1.70306e+9 
        929.374      1.62458e+9 
        929.429      1.58347e+9 
        929.486       1.5486e+9 
        929.543      1.50919e+9 
        929.545      1.50771e+9 
        929.655      1.42937e+9 
        929.657      1.42811e+9 
        929.769      1.34885e+9 
        929.827      1.30867e+9 
        929.883      1.26994e+9 
         929.91      1.25279e+9 
        929.939      1.23629e+9 
        929.954      1.22916e+9 
        929.968       1.2243e+9 
        929.982      1.22068e+9 
        929.996      1.21856e+9 
         930.01      1.21795e+9 
        930.024      1.21875e+9 
        930.038      1.22106e+9 
        930.052      1.22487e+9 
        930.081      1.23725e+9 
        930.137      1.27176e+9 
        930.201      1.31707e+9 
        930.247      1.35001e+9 
        930.249      1.35143e+9 
        930.251      1.35285e+9 
        930.301      1.38956e+9 
        930.326      1.40778e+9 
        930.402      1.46238e+9 
        930.478      1.52025e+9 
         930.63      1.63114e+9 
        930.633      1.63353e+9 
        930.782      1.74824e+9 
        930.931       1.8523e+9 
         931.08      1.98214e+9 
        931.229      2.09692e+9 
        931.379      2.21137e+9 
        931.516      2.31806e+9 
        931.677       2.4463e+9 
        931.838      2.55728e+9 
        931.999      2.65336e+9 
         932.16      2.75768e+9 
        932.321      2.84676e+9 
        932.483      2.92222e+9 
        932.644      2.98547e+9 
        932.805      3.03825e+9 
        932.966      3.08131e+9 
        933.127      3.11423e+9 
        933.173      3.12209e+9 
        933.288      3.13888e+9 
        933.403      3.15007e+9 
         933.45      3.15237e+9 
        933.496      3.15362e+9 
        933.519      3.15388e+9 
        933.542      3.15388e+9 
         933.58      3.15331e+9 
        933.616      3.15212e+9 
        933.634       3.1513e+9 
        933.652      3.15029e+9 
        933.724      3.14445e+9 
        933.868      3.12459e+9 
        934.012      3.09531e+9 
        934.156      3.05601e+9 
          934.3      3.00469e+9 
        934.444      2.94258e+9 
        934.526      2.90288e+9 
        934.589      2.86903e+9 
        934.652      2.83251e+9 
        934.778      2.75237e+9 
        934.904      2.66928e+9 
         935.03      2.57779e+9 
        935.082      2.53773e+9 
        935.156      2.49181e+9 
         935.23      2.44463e+9 
        935.378      2.34225e+9 
        935.527      2.23039e+9 
        935.675      2.11324e+9 
        935.823      1.99542e+9 
        936.044      1.82452e+9 
        936.094      1.78218e+9 
        936.119      1.76051e+9 
        936.144      1.73849e+9 
        936.244      1.66661e+9 
        936.344      1.59285e+9 
        936.488       1.4783e+9 
        936.544      1.44079e+9 
        936.601      1.39987e+9 
        936.713      1.31414e+9 
        936.779      1.26453e+9 
        936.814       1.2361e+9 
        936.821      1.23133e+9 
        936.825      1.22852e+9 
        936.829      1.22566e+9 
        936.879      1.18542e+9 
        936.887      1.17881e+9 
        936.944      1.12934e+9 
        936.973      1.10284e+9 
        937.001       1.0761e+9 
        937.015      1.06318e+9 
        937.029      1.05215e+9 
        937.043      1.04288e+9 
        937.058      1.03639e+9 
        937.072      1.03438e+9 
        937.086       1.0365e+9 
        937.101      1.04311e+9 
        937.115      1.05249e+9 
        937.143      1.07667e+9 
         937.15      1.08262e+9 
        937.186      1.11778e+9 
        937.199      1.12935e+9 
         937.25       1.1743e+9 
        937.314       1.2271e+9 
        937.341      1.24572e+9 
        937.442      1.32547e+9 
        937.543      1.40475e+9 
        937.746      1.55879e+9 
        937.896      1.67517e+9 
        937.948      1.71391e+9 
            938       1.7529e+9 
        938.104      1.84615e+9 
        938.208      1.93449e+9 
        938.312      2.01733e+9 
        938.416      2.10742e+9 
         938.52      2.19633e+9 
        938.543      2.21685e+9 
        938.729      2.38315e+9 
        938.914      2.53995e+9 
        938.927      2.55061e+9 
        939.099      2.69822e+9 
        939.271      2.87238e+9 
        939.443      3.04446e+9 
        939.615      3.21479e+9 
        939.788      3.37486e+9 
         939.96      3.53451e+9 
        940.132      3.68487e+9 
        940.212       3.7516e+9 
        940.304      3.82976e+9 
        940.344      3.86297e+9 
        940.476      3.96852e+9 
        940.608      4.06824e+9 
         940.74      4.16233e+9 
        940.873      4.24781e+9 
        941.005       4.3283e+9 
        941.269      4.47561e+9 
        941.533      4.61019e+9 
        941.797      4.72888e+9 
        942.062      4.83007e+9 
        942.326       4.9104e+9 
         942.59      4.97198e+9 
        942.661      4.98546e+9 
        942.854      5.01521e+9 
        943.048      5.03468e+9 
        943.241      5.04153e+9 
        943.434      5.03626e+9 
        943.627      5.01885e+9 
         943.82      4.98879e+9 
        944.013      4.94562e+9 
        944.207      4.87503e+9 
          944.4      4.78471e+9 
        944.593      4.67654e+9 
        944.651      4.64057e+9 
        944.786      4.55289e+9 
        944.815      4.53429e+9 
        944.979      4.42176e+9 
        945.143      4.29682e+9 
        945.308      4.15969e+9 
        945.472      4.01304e+9 
        945.636       3.8574e+9 
          945.8       3.6931e+9 
        945.964       3.5418e+9 
        946.128       3.4048e+9 
        946.292      3.26377e+9 
        946.457      3.12548e+9 
        946.621      2.98351e+9 
         946.74      2.87845e+9 
        946.949      2.69577e+9 
        947.158      2.52031e+9 
        947.367      2.34818e+9 
        947.489      2.24661e+9 
        947.786      1.99499e+9 
        947.934      1.87527e+9 
        948.083      1.74974e+9 
        948.215      1.64499e+9 
        948.232      1.63182e+9 
         948.38      1.51344e+9 
        948.546      1.38678e+9 
        948.645      1.30795e+9 
        948.661      1.29517e+9 
        948.711      1.25627e+9 
        948.777      1.19904e+9 
        948.835      1.14556e+9 
        948.893      1.08487e+9 
        948.922      1.05068e+9 
        948.951      1.01442e+9 
        948.966       9.9624e+8 
         948.98      9.83727e+8 
        948.994      9.73137e+8 
        949.009      9.66018e+8 
        949.023      9.63938e+8 
        949.037      9.66118e+8 
        949.052      9.73347e+8 
        949.066      9.84038e+8 
        949.095      1.01495e+9 
        949.153      1.08588e+9 
         949.23      1.16589e+9 
        949.258      1.19153e+9 
        949.269      1.20109e+9 
         949.28      1.21025e+9 
         949.33      1.25465e+9 
         949.36      1.27934e+9 
         949.43      1.33488e+9 
          949.5      1.39119e+9 
         949.64      1.49896e+9 
        949.781      1.61365e+9 
        949.795      1.62475e+9 
        949.879      1.69206e+9 
        949.921      1.72541e+9 
        949.963      1.76023e+9 
        950.131      1.90477e+9 
        950.299      2.04407e+9 
        950.383      2.11763e+9 
        950.467      2.19089e+9 
        950.635      2.33792e+9 
        950.888      2.55509e+9 
         951.14      2.78109e+9 
        951.392      3.01932e+9 
        951.644      3.26009e+9 
        951.896      3.50674e+9 
        952.023      3.63259e+9 
        952.149      3.75866e+9 
        952.275      3.91452e+9 
        952.401      4.07496e+9 
        952.568      4.28648e+9 
        952.653       4.3933e+9 
        952.738      4.50065e+9 
        952.908      4.71396e+9 
        953.249      5.12692e+9 
        953.589      5.55795e+9 
        953.759      5.77076e+9 
        953.929      5.97911e+9 
        954.099      6.17009e+9 
         954.27      6.34831e+9 
         954.44      6.52286e+9 
         954.61      6.69335e+9 
         954.95      7.02246e+9 
        955.247      7.29654e+9 
         955.29      7.33505e+9 
        955.631      7.62923e+9 
        956.014      7.92643e+9 
        956.397      8.18756e+9 
        956.781      8.42453e+9 
        957.164      8.63771e+9 
        957.547      8.82656e+9 
        957.931      8.99111e+9 
        958.314      9.13116e+9 
        958.697      9.24662e+9 
        958.872      9.29085e+9 
        959.081       9.3365e+9 
        959.289      9.37451e+9 
        959.705       9.4234e+9 
        959.813      9.43075e+9 
        960.122      9.43957e+9 
         960.43      9.43075e+9 
        960.738      9.40147e+9 
        961.046      9.35409e+9 
        961.355      9.28834e+9 
        961.663      9.20408e+9 
        961.971      9.10135e+9 
        962.279      8.98009e+9 
        962.588      8.84047e+9 
        962.896      8.68412e+9 
        963.204      8.51007e+9 
        963.512      8.31884e+9 
        963.821      8.11122e+9 
        964.027      7.96391e+9 
        964.129      7.88848e+9 
        964.231      7.81138e+9 
        964.435      7.65191e+9 
        964.843      7.31674e+9 
        965.252      6.96362e+9 
         965.66      6.59656e+9 
        966.068      6.21768e+9 
        966.885       5.4414e+9 
        967.371      4.97462e+9 
        967.702      4.66096e+9 
        968.032      4.35161e+9 
        968.088      4.29921e+9 
        968.693      3.74032e+9 
        969.297      3.19808e+9 
        969.826      2.73434e+9 
        969.876      2.69118e+9 
        969.902      2.66983e+9 
        969.927      2.64848e+9 
        970.027      2.56317e+9 
        970.227      2.39343e+9 
        970.382      2.26318e+9 
        970.628      2.05826e+9 
        970.874      1.85675e+9 
        970.893      1.84084e+9 
         971.11       1.6636e+9 
         971.12      1.65532e+9 
        971.229      1.56594e+9 
        971.348      1.47001e+9 
        971.467      1.37121e+9 
        971.585      1.26678e+9 
        971.644       1.2038e+9 
        971.703      1.12956e+9 
        971.732       1.0833e+9 
        971.762       1.0277e+9 
        971.778      9.97349e+8 
        971.792      9.76457e+8 
        971.806       9.5773e+8 
        971.821      9.45616e+8 
        971.836       9.4167e+8 
        971.851      9.45714e+8 
        971.866      9.57934e+8 
         971.88      9.76756e+8 
         971.91      1.02822e+9 
        971.969      1.13056e+9 
        972.037      1.21589e+9 
        972.087      1.26883e+9 
        972.137      1.31679e+9 
         972.15       1.3285e+9 
        972.199      1.36898e+9 
        972.237      1.40149e+9 
        972.324       1.4744e+9 
        972.499      1.61823e+9 
        972.798      1.86683e+9 
        973.047      2.07416e+9 
        973.396      2.37147e+9 
        973.746      2.67407e+9 
        974.095      2.98483e+9 
        974.444        3.301e+9 
        974.645      3.48604e+9 
        974.793      3.62449e+9 
        975.143      3.95652e+9 
         975.64      4.44271e+9 
        976.137      4.94383e+9 
        976.635      5.46857e+9 
        977.132      6.01084e+9 
         977.63        6.568e+9 
        977.944      6.92925e+9 
        978.127      7.14254e+9 
        978.624      7.73042e+9 
        979.305      8.55817e+9 
        979.985      9.40002e+9 
        981.346     1.11075e+10 
        981.491     1.12915e+10 
        982.707      1.2827e+10 
        983.923      1.4333e+10 
        985.139     1.57827e+10 
        986.092     1.68744e+10 
        986.355     1.71686e+10 
        986.618     1.74601e+10 
        987.145      1.8029e+10 
        988.197     1.91196e+10 
        989.188     2.00831e+10 
         989.25     2.01414e+10 
        989.312     2.01994e+10 
        989.436     2.03134e+10 
        989.685     2.05382e+10 
        990.181     2.09747e+10 
        991.174     2.17952e+10 
        992.166     2.25452e+10 
        992.438     2.27379e+10 
        993.159     2.32197e+10 
         993.88     2.36593e+10 
          994.6     2.40414e+10 
        995.321     2.43769e+10 
        996.041     2.46639e+10 
        996.762     2.49009e+10 
        997.482     2.50856e+10 
        997.958     2.51779e+10 
        998.203     2.52159e+10 
        998.447     2.52473e+10 
        998.551     2.52574e+10 
        998.935     2.52842e+10 
        999.319     2.52943e+10 
        1000.09     2.52563e+10 
        1000.86     2.51485e+10 
        1001.62     2.49686e+10 
        1002.39      2.4716e+10 
        1003.16     2.43893e+10 
        1003.54     2.42018e+10 
        1003.93     2.39869e+10 
        1004.32     2.37522e+10 
        1005.11     2.32161e+10 
        1005.89     2.26039e+10 
        1006.68     2.19163e+10 
        1007.46     2.11577e+10 
        1008.25     2.03316e+10 
        1008.73     1.97863e+10 
        1009.03     1.94449e+10 
        1009.33     1.90958e+10 
        1009.92     1.83723e+10 
        1010.51     1.76237e+10 
         1011.1     1.68545e+10 
        1012.29     1.52688e+10 
        1012.62     1.48228e+10 
        1013.47       1.365e+10 
        1014.33     1.24786e+10 
        1015.19     1.13286e+10 
        1016.04     1.02077e+10 
        1016.47       9.6625e+9 
         1016.9      9.12761e+9 
        1017.33      8.60432e+9 
        1017.76       8.0945e+9 
         1017.9      7.93123e+9 
        1018.19      7.59788e+9 
        1018.26      7.51833e+9 
        1018.62      7.11602e+9 
        1018.97      6.72339e+9 
        1019.33      6.34096e+9 
        1019.69      5.96874e+9 
        1020.05      5.60617e+9 
        1020.41      5.25519e+9 
        1020.49       5.1764e+9 
        1020.77      4.91361e+9 
        1021.04      4.65688e+9 
         1021.6      4.15711e+9 
        1022.15      3.67356e+9 
        1022.37      3.48808e+9 
        1022.71      3.20307e+9 
        1023.04      2.92219e+9 
        1023.39      2.63483e+9 
        1023.54      2.51213e+9 
        1023.72      2.36974e+9 
        1024.04      2.10538e+9 
        1024.29      1.90204e+9 
        1024.41      1.79942e+9 
        1024.54      1.69492e+9 
        1024.67      1.58824e+9 
        1024.79      1.47251e+9 
        1024.85      1.39803e+9 
        1024.91      1.29812e+9 
        1024.95      1.22544e+9 
        1024.98      1.13883e+9 
        1024.99      1.10165e+9 
        1025.01      1.06624e+9 
        1025.03      1.04245e+9 
        1025.04      1.03008e+9 
        1025.04      1.02775e+9 
        1025.05      1.02521e+9 
        1025.06      1.02504e+9 
        1025.06        1.025e+9 
        1025.07      1.02784e+9 
        1025.09      1.03897e+9 
         1025.1      1.06056e+9 
        1025.13      1.12943e+9 
         1025.2      1.28883e+9 
        1025.27      1.40849e+9 
        1025.32       1.4686e+9 
        1025.37      1.52012e+9 
        1025.47      1.60987e+9 
        1025.52      1.65317e+9 
        1025.57      1.69591e+9 
        1025.62      1.73844e+9 
        1025.72       1.8226e+9 
        1025.77      1.86502e+9 
        1025.92       1.9887e+9 
        1026.07      2.11187e+9 
        1026.37      2.35827e+9 
        1026.86       2.7673e+9 
        1026.96      2.85442e+9 
        1027.07      2.94182e+9 
        1027.28      3.11793e+9 
