# Koester WD models
# teff = 34000 K (value for the effective temperature for the model. Temperatures are given in K)
# logg = 9.5 log(cm/s2) (value for Log(G) for the model.)
#
# column 1: WAVELENGTH (ANGSTROM), Wavelength in Angstrom
# column 2: FLUX (ERG/CM2/S/A), Flux in erg/cm2/s/A
         899.23     1.23908e+10 
        904.235     1.24061e+10 
         908.45     1.24173e+10 
        909.241     1.24191e+10 
        910.032     1.24208e+10 
        911.193     1.24231e+10 
        911.613     1.24237e+10 
        912.034     1.24243e+10 
        912.465     1.24253e+10 
        912.875     1.24261e+10 
        913.037     1.24264e+10 
        913.241     1.24267e+10 
        913.284     1.24268e+10 
        913.478      1.2427e+10 
        913.531      1.2427e+10 
        913.755     1.24272e+10 
        913.822     1.24273e+10 
         914.08     1.24273e+10 
        914.165     1.24273e+10 
        914.499     1.24271e+10 
        914.575     1.24269e+10 
        915.071     1.24258e+10 
         915.54     1.24236e+10 
        915.609     1.24232e+10 
        915.643     1.24229e+10 
        915.677     1.24238e+10 
        915.741     1.24254e+10 
        915.813     1.24272e+10 
        916.085     1.24331e+10 
        916.429     1.24394e+10 
        916.858     1.24456e+10 
        917.118     1.24468e+10 
        917.196      1.2447e+10 
        917.378     1.24474e+10 
        917.899     1.24494e+10 
        917.952     1.24489e+10 
        918.287     1.24405e+10 
        918.602     1.24305e+10 
        919.251     1.24249e+10 
        919.733     1.24493e+10 
        919.974     1.24482e+10 
        920.215     1.24499e+10 
        920.457     1.24834e+10 
        920.697     1.25201e+10 
        920.938     1.25402e+10 
        921.179     1.25474e+10 
        921.421     1.25338e+10 
        921.661     1.25006e+10 
        921.882     1.24542e+10 
        921.902     1.24492e+10 
        921.999     1.24228e+10 
        922.143     1.23834e+10 
        922.201     1.23678e+10 
        922.303     1.23427e+10 
        922.405     1.23329e+10 
        922.506      1.2351e+10 
        922.607      1.2384e+10 
        922.709     1.24192e+10 
         922.76      1.2437e+10 
         922.81     1.24536e+10 
         922.86     1.24806e+10 
         922.96     1.25307e+10 
         923.16     1.26202e+10 
        923.361     1.26849e+10 
        923.561     1.27314e+10 
        923.761     1.27562e+10 
        923.961     1.27473e+10 
        924.161     1.27078e+10 
        924.362     1.26424e+10 
        924.562     1.25285e+10 
        924.762     1.24138e+10 
        924.841     1.23546e+10 
        924.962     1.22618e+10 
        925.162     1.20996e+10 
        925.324      1.1974e+10 
        925.484     1.18994e+10 
        925.644     1.20236e+10 
        925.805     1.22022e+10 
        925.965     1.23907e+10 
        926.126     1.25739e+10 
        926.205     1.26638e+10 
        926.287     1.27466e+10 
        926.369     1.28248e+10 
        926.532     1.30073e+10 
        926.695     1.31552e+10 
        926.858     1.32829e+10 
        927.021     1.33925e+10 
        927.184      1.3473e+10 
        927.348      1.3519e+10 
        927.511      1.3542e+10 
        927.674     1.35388e+10 
        927.837     1.34907e+10 
            928     1.33914e+10 
        928.106     1.33282e+10 
        928.144     1.33046e+10 
        928.163     1.32919e+10 
        928.182     1.32785e+10 
        928.258     1.32213e+10 
        928.411     1.30775e+10 
        928.563     1.28794e+10 
        928.645     1.27672e+10 
        928.715     1.26561e+10 
        928.756     1.25834e+10 
        928.867     1.24359e+10 
        928.917     1.23581e+10 
        928.978      1.2255e+10 
        929.089     1.20312e+10 
        929.261     1.17261e+10 
        929.325      1.1609e+10 
        929.434     1.13768e+10 
        929.543     1.11736e+10 
        929.719     1.08203e+10 
        929.753      1.0751e+10 
        929.755     1.07473e+10 
        929.761     1.07361e+10 
        929.769     1.07205e+10 
        929.819     1.06287e+10 
        929.827     1.06145e+10 
        929.883     1.05174e+10 
         929.91     1.04792e+10 
        929.939     1.04454e+10 
        929.954     1.04324e+10 
        929.968     1.04236e+10 
        929.982     1.04177e+10 
        929.996     1.04151e+10 
         930.01     1.04153e+10 
        930.024     1.04186e+10 
        930.038     1.04248e+10 
        930.052     1.04342e+10 
        930.081     1.04635e+10 
        930.137     1.05503e+10 
        930.201     1.06798e+10 
        930.247     1.07774e+10 
        930.249     1.07821e+10 
        930.251     1.07868e+10 
        930.301     1.09027e+10 
        930.326     1.09574e+10 
        930.329     1.09648e+10 
        930.402     1.11358e+10 
        930.478     1.13214e+10 
         930.63     1.16911e+10 
        930.931     1.24217e+10 
        931.229      1.3154e+10 
        931.382      1.3532e+10 
        931.534     1.38934e+10 
        931.686     1.42191e+10 
        931.838     1.45079e+10 
         931.99     1.47573e+10 
        932.142     1.50455e+10 
        932.294     1.52849e+10 
        932.447     1.54818e+10 
        932.599     1.56422e+10 
        932.751     1.57748e+10 
        932.903     1.58907e+10 
        933.055     1.59781e+10 
        933.207     1.60378e+10 
        933.265      1.6054e+10 
        933.315     1.60642e+10 
        933.359     1.60703e+10 
        933.403     1.60737e+10 
        933.432     1.60744e+10 
        933.542     1.60659e+10 
        933.652      1.6039e+10 
        933.872      1.5925e+10 
        933.982     1.58392e+10 
        934.092     1.57349e+10 
        934.202     1.56069e+10 
        934.312     1.54539e+10 
        934.413     1.53041e+10 
        934.533     1.51268e+10 
        934.652      1.4917e+10 
        934.771     1.46721e+10 
         934.89     1.43989e+10 
        935.009     1.40859e+10 
        935.026     1.40379e+10 
        935.128     1.37693e+10 
         935.23     1.35369e+10 
        935.332      1.3282e+10 
        935.434     1.30226e+10 
        935.537     1.27483e+10 
        935.639     1.24492e+10 
        935.741     1.21335e+10 
        935.746     1.21173e+10 
        935.843     1.18118e+10 
        935.945     1.15453e+10 
        936.144     1.09457e+10 
        936.343     1.03723e+10 
        936.484       9.9531e+9 
        936.542      9.80083e+9 
        936.601      9.64507e+9 
        936.605      9.63417e+9 
        936.717      9.30486e+9 
        936.829          9.0e+9 
        936.894      8.80676e+9 
        936.938      8.66659e+9 
        936.941      8.65581e+9 
        936.944      8.64466e+9 
        936.973      8.54541e+9 
        936.987      8.49537e+9 
        936.994      8.46961e+9 
        937.001      8.44683e+9 
        937.015      8.39855e+9 
        937.029      8.35648e+9 
        937.043      8.32195e+9 
        937.058      8.29745e+9 
        937.072      8.28981e+9 
        937.086      8.29795e+9 
        937.101      8.32299e+9 
        937.115      8.35805e+9 
        937.143       8.4495e+9 
         937.15      8.47256e+9 
        937.186      8.60181e+9 
        937.199      8.64585e+9 
         937.25      8.81408e+9 
        937.314      9.00773e+9 
        937.341      9.08112e+9 
        937.442      9.36138e+9 
        937.543      9.67092e+9 
        937.645      9.94518e+9 
        937.746     1.02662e+10 
        937.847     1.05486e+10 
        937.896     1.07021e+10 
        937.948     1.08704e+10 
            938     1.10347e+10 
        938.104     1.13878e+10 
        938.208     1.17133e+10 
        938.312     1.20154e+10 
        938.416     1.23983e+10 
         938.52      1.2769e+10 
        938.543     1.28499e+10 
        938.556     1.28961e+10 
        938.729       1.347e+10 
        938.736     1.34904e+10 
        938.914     1.40791e+10 
        939.093     1.46768e+10 
        939.271     1.53748e+10 
        939.449     1.60114e+10 
        939.628     1.65949e+10 
        939.807     1.71473e+10 
        939.986      1.7742e+10 
        940.164     1.82859e+10 
        940.343     1.87949e+10 
        940.521     1.92617e+10 
         940.58     1.94048e+10 
         940.66     1.95932e+10 
          940.7     1.96842e+10 
         940.74     1.97734e+10 
        940.901     2.01113e+10 
        941.061     2.04208e+10 
        941.221     2.07037e+10 
        941.541     2.12259e+10 
        941.861     2.16668e+10 
        942.182      2.2009e+10 
        942.502     2.22455e+10 
        942.597     2.22967e+10 
        942.822     2.23835e+10 
        943.048     2.24221e+10 
        943.273     2.24042e+10 
        943.498     2.23354e+10 
        943.723     2.22075e+10 
        943.948     2.20173e+10 
        944.174     2.17402e+10 
        944.399     2.13694e+10 
        944.624     2.09134e+10 
        944.841     2.04268e+10 
        944.849     2.04092e+10 
        945.074     1.98728e+10 
        945.308     1.92327e+10 
        945.541     1.85195e+10 
        945.774     1.77219e+10 
        946.007      1.6923e+10 
         946.24     1.61408e+10 
        946.474     1.54201e+10 
        946.722     1.46545e+10 
         946.94     1.39362e+10 
        947.106     1.33846e+10 
        947.158     1.32197e+10 
        947.595      1.1804e+10 
        947.621     1.17153e+10 
        947.852     1.09532e+10 
        948.083     1.02307e+10 
        948.314      9.51642e+9 
        948.546      8.80626e+9 
        948.661      8.42836e+9 
        948.777      8.06415e+9 
        948.835      7.86121e+9 
        948.893      7.63065e+9 
        948.922      7.50925e+9 
        948.951      7.39336e+9 
        948.966      7.34168e+9 
         948.98      7.30276e+9 
        948.994       7.2747e+9 
        949.009      7.25755e+9 
        949.023      7.25249e+9 
        949.037      7.25786e+9 
        949.052      7.27539e+9 
        949.066      7.30376e+9 
        949.095      7.39503e+9 
        949.153      7.63369e+9 
         949.23      7.93664e+9 
        949.258      8.03007e+9 
        949.269      8.07006e+9 
         949.28      8.10795e+9 
         949.33      8.27521e+9 
         949.36      8.36675e+9 
         949.43      8.59446e+9 
          949.5       8.8182e+9 
         949.64      9.24797e+9 
        949.795      9.71575e+9 
        949.879       9.9843e+9 
        949.921     1.01199e+10 
        949.963     1.02574e+10 
        950.131     1.07969e+10 
        950.467     1.19129e+10 
        950.719     1.27511e+10 
        950.804     1.30367e+10 
        950.888      1.3319e+10 
        951.056     1.38912e+10 
        951.392     1.50747e+10 
         951.56     1.56388e+10 
        951.728     1.61875e+10 
        951.896     1.68516e+10 
        952.065      1.7513e+10 
        952.233     1.82133e+10 
        952.401     1.89621e+10 
        952.688     2.01816e+10 
        952.737     2.03904e+10 
        952.788     2.06053e+10 
        952.888     2.10201e+10 
        953.089     2.18282e+10 
        953.489     2.34659e+10 
        953.689     2.42953e+10 
        953.889      2.5088e+10 
        954.089     2.58255e+10 
         954.29      2.6508e+10 
         954.49     2.71584e+10 
         954.69     2.77785e+10 
         955.09      2.8967e+10 
        955.491     3.00616e+10 
        955.768     3.07525e+10 
        955.891     3.10293e+10 
        956.014     3.12938e+10 
         956.26     3.17869e+10 
        956.753     3.26679e+10 
        957.245     3.34187e+10 
        957.738     3.40473e+10 
         958.23     3.45553e+10 
        958.722     3.49493e+10 
        959.141     3.51918e+10 
        959.215     3.52261e+10 
        959.289     3.52575e+10 
        959.437     3.53084e+10 
        959.733     3.53781e+10 
        960.029     3.54029e+10 
        960.222     3.53957e+10 
        960.326     3.53841e+10 
         960.43     3.53668e+10 
        960.638     3.53106e+10 
        961.054     3.51309e+10 
        961.471     3.48604e+10 
        961.887     3.44972e+10 
        962.303     3.40385e+10 
         962.72     3.34853e+10 
        962.874       3.326e+10 
        963.136      3.2846e+10 
        963.213     3.27172e+10 
        963.552     3.21105e+10 
        963.892     3.14401e+10 
        964.231     3.07083e+10 
         964.57     2.99117e+10 
        964.909     2.90575e+10 
        965.249     2.81542e+10 
        965.588      2.7204e+10 
        965.927     2.62096e+10 
        966.267     2.51945e+10 
        966.606     2.41474e+10 
        966.945     2.30636e+10 
        967.215     2.21783e+10 
        967.284     2.19496e+10 
        967.624     2.08164e+10 
        968.032     1.94552e+10 
          968.4      1.8221e+10 
        968.668     1.73189e+10 
        968.849      1.6706e+10 
        969.297     1.52179e+10 
        969.927     1.31713e+10 
        970.238     1.21775e+10 
        970.556     1.11612e+10 
        970.874     1.01858e+10 
        971.037      9.67488e+9 
         971.11      9.46436e+9 
        971.193      9.21875e+9 
        971.229      9.10418e+9 
        971.348      8.73168e+9 
        971.467      8.33487e+9 
        971.585      7.92709e+9 
        971.644      7.68412e+9 
        971.703      7.37671e+9 
        971.732      7.17735e+9 
        971.762      6.93312e+9 
        971.778      6.80079e+9 
        971.792      6.69561e+9 
        971.806      6.60696e+9 
        971.821      6.54758e+9 
        971.836       6.5277e+9 
        971.851      6.54786e+9 
        971.866      6.60759e+9 
         971.88      6.69649e+9 
         971.91      6.93466e+9 
        971.969      7.37951e+9 
        972.037      7.72951e+9 
        972.087      7.93243e+9 
        972.137      8.12121e+9 
         972.15      8.16522e+9 
        972.237      8.45717e+9 
        972.324       8.7423e+9 
        972.499      9.29157e+9 
        972.548       9.4392e+9 
        972.673      9.81355e+9 
        972.798     1.02071e+10 
        973.048     1.09767e+10 
        973.298     1.17806e+10 
        973.351     1.19506e+10 
        973.548     1.25724e+10 
        973.746     1.32165e+10 
         974.14     1.45148e+10 
        974.217      1.4768e+10 
        974.534     1.58025e+10 
        974.928     1.71589e+10 
         975.64     1.96199e+10 
        976.352     2.21171e+10 
        977.063     2.46307e+10 
        977.668     2.67286e+10 
        978.486     2.96013e+10 
        979.305     3.24259e+10 
        980.123     3.51607e+10 
        980.942     3.77959e+10 
        981.235     3.87252e+10 
        981.761     4.03632e+10 
        981.907     4.08115e+10 
        982.579     4.28183e+10 
        983.251      4.4741e+10 
        983.923     4.65782e+10 
        984.596     4.83224e+10 
        985.267     4.99915e+10 
         985.94      5.1579e+10 
        986.568     5.29946e+10 
        986.604     5.30738e+10 
        986.611     5.30891e+10 
        986.618     5.31045e+10 
        986.668     5.32129e+10 
        986.768     5.34288e+10 
        986.969     5.38554e+10 
        987.027     5.39776e+10 
        987.369     5.46873e+10 
        988.169     5.62675e+10 
        989.312     5.83347e+10 
        990.455     6.01483e+10 
        991.598     6.17518e+10 
        991.602     6.17568e+10 
        992.741     6.31586e+10 
         993.88      6.4358e+10 
        995.018     6.52971e+10 
        996.157     6.60209e+10 
        997.296      6.6527e+10 
        998.397     6.68003e+10 
        998.423     6.68041e+10 
        998.435     6.68057e+10 
        998.447     6.68075e+10 
        998.497     6.68129e+10 
        998.597     6.68226e+10 
        998.797     6.68364e+10 
        999.075     6.68427e+10 
        999.197     6.68412e+10 
        999.319     6.68364e+10 
        999.563     6.68129e+10 
        1000.05     6.67312e+10 
        1001.03     6.64261e+10 
           1002     6.59254e+10 
        1002.98     6.52261e+10 
        1003.59     6.46797e+10 
        1003.96     6.43147e+10 
        1004.32     6.39185e+10 
        1005.05     6.30116e+10 
        1005.78     6.19852e+10 
        1006.51     6.08357e+10 
         1006.6     6.06748e+10 
        1007.24     5.95605e+10 
        1007.28     5.94719e+10 
        1007.97       5.816e+10 
        1008.65     5.67416e+10 
        1009.33     5.52176e+10 
        1010.01     5.35805e+10 
        1010.69     5.18485e+10 
        1011.37      5.0027e+10 
        1012.05     4.81207e+10 
        1012.49     4.68446e+10 
        1012.73     4.61368e+10 
        1013.41     4.40853e+10 
        1014.33     4.12127e+10 
        1015.25     3.82637e+10 
        1016.17     3.52628e+10 
        1017.09     3.22397e+10 
        1018.53     2.74985e+10 
        1018.93     2.61911e+10 
        1019.22     2.52497e+10 
        1019.33     2.48905e+10 
        1020.13     2.23176e+10 
        1021.04     1.94504e+10 
        1021.96     1.66615e+10 
        1022.69     1.44632e+10 
        1022.74     1.43096e+10 
        1022.87     1.39483e+10 
        1023.04     1.34363e+10 
        1023.39     1.24225e+10 
        1023.54     1.19959e+10 
        1024.04     1.05725e+10 
        1024.29      9.86121e+9 
        1024.41      9.50168e+9 
        1024.54      9.12639e+9 
        1024.67      8.72826e+9 
        1024.79      8.27766e+9 
        1024.85      7.99133e+9 
        1024.91      7.57008e+9 
        1024.95      7.23955e+9 
        1024.98      6.81631e+9 
        1024.99      6.64362e+9 
        1025.01      6.44397e+9 
        1025.03      6.30021e+9 
        1025.04      6.21093e+9 
        1025.04      6.19488e+9 
        1025.05      6.17301e+9 
        1025.06      6.17153e+9 
        1025.06      6.17109e+9 
        1025.07       6.1951e+9 
        1025.09      6.27307e+9 
         1025.1      6.41117e+9 
        1025.13      6.76985e+9 
         1025.2      7.52804e+9 
        1025.27      8.03016e+9 
        1025.32      8.25978e+9 
        1025.37       8.4571e+9 
        1025.47      8.80485e+9 
        1025.52       8.9656e+9 
        1025.57      9.12218e+9 
        1025.62      9.27766e+9 
        1025.72      9.57328e+9 
        1025.77      9.72122e+9 
        1025.92       1.015e+10 
        1026.07     1.05769e+10 
        1026.37     1.14295e+10 
        1026.86     1.28457e+10 
        1026.96      1.3148e+10 
        1027.07     1.34516e+10 
        1027.28     1.40617e+10 
        1027.69     1.52934e+10 
        1027.98     1.61646e+10 
        1028.53     1.78038e+10 
         1028.8     1.86301e+10 
        1029.07     1.94658e+10 
        1029.34     2.03067e+10 
        1029.88     2.20168e+10 
        1030.96     2.55034e+10 
        1032.05     2.90693e+10 
        1033.08     3.25211e+10 
        1033.13     3.26961e+10 
        1033.19     3.28714e+10 
        1033.23     3.30163e+10 
        1033.29      3.3222e+10 
         1033.5     3.39239e+10 
        1033.91       3.533e+10 
        1034.75     3.81625e+10 
        1036.27      4.3359e+10 
        1039.17     5.31865e+10 
        1039.26     5.34721e+10 
         1039.3     5.36147e+10 
        1039.34      5.3757e+10 
         1039.5     5.42858e+10 
        1039.52     5.43254e+10 
        1039.86     5.54573e+10 
        1040.55     5.77007e+10 
        1040.71      5.8237e+10 
        1041.92     6.20807e+10 
        1043.14     6.58063e+10 
        1044.35     6.93921e+10 
        1045.56     7.28444e+10 
        1046.77     7.61491e+10 
        1047.98     7.92951e+10 
        1049.03     8.18982e+10 
        1049.19     8.22833e+10 
        1049.35      8.2666e+10 
        1049.67     8.34222e+10 
        1050.31     8.48981e+10 
        1051.59      8.7707e+10 
        1052.87     9.03214e+10 
        1053.95     9.23766e+10 
        1054.15     9.27423e+10 
