# Koester WD models
# teff = 45000 K (value for the effective temperature for the model. Temperatures are given in K)
# logg = 6.75 log(cm/s2) (value for Log(G) for the model.)
#
# column 1: WAVELENGTH (ANGSTROM), Wavelength in Angstrom
# column 2: FLUX (ERG/CM2/S/A), Flux in erg/cm2/s/A
         899.23     6.85561e+10 
        904.235     6.80972e+10 
         908.45     6.77098e+10 
        909.241     6.76366e+10 
        910.032     6.75631e+10 
        911.193     6.74534e+10 
        911.613     6.74129e+10 
        912.034     6.73715e+10 
        912.465      6.7396e+10 
        912.875     6.74142e+10 
        913.037     6.74198e+10 
        913.241     6.74236e+10 
        913.284     6.74239e+10 
        913.478     6.74252e+10 
        913.531     6.74249e+10 
        913.755     6.74214e+10 
        913.822     6.74186e+10 
         914.08      6.7406e+10 
        914.165     6.73978e+10 
        914.499      6.7362e+10 
        914.575     6.73469e+10 
        915.071     6.72351e+10 
         915.54     6.70777e+10 
        915.609     6.70212e+10 
        915.643     6.69957e+10 
        915.677     6.70422e+10 
        915.741     6.71528e+10 
        915.813     6.72913e+10 
        915.913      6.7455e+10 
        916.085     6.76614e+10 
        916.257     6.77406e+10 
        916.429     6.77799e+10 
        916.602     6.81182e+10 
        916.774     6.83761e+10 
        916.858     6.84217e+10 
        916.946     6.84248e+10 
        917.118     6.82753e+10 
        917.248     6.80155e+10 
        917.378     6.78298e+10 
        917.509     6.81832e+10 
        917.639     6.86249e+10 
        917.769      6.8898e+10 
        917.899     6.89388e+10 
        918.029     6.88175e+10 
        918.159     6.84129e+10 
        918.289     6.78113e+10 
         918.42     6.70557e+10 
        918.498     6.65443e+10 
         918.55     6.62524e+10 
        918.602     6.61371e+10 
        918.706     6.66486e+10 
         918.81     6.74283e+10 
        918.914     6.81217e+10 
        918.993     6.86014e+10 
        919.018     6.87088e+10 
        919.122     6.90858e+10 
        919.251     6.93456e+10 
         919.38      6.9541e+10 
         919.51     6.92303e+10 
        919.639     6.85986e+10 
        919.768     6.74761e+10 
        919.897     6.60869e+10 
        920.026     6.44598e+10 
        920.095     6.35378e+10 
        920.155     6.28413e+10 
        920.215     6.25802e+10 
        920.335     6.39572e+10 
        920.456     6.60831e+10 
        920.576     6.81474e+10 
        920.696     6.99626e+10 
        920.816     7.16556e+10 
        920.936     7.28937e+10 
        921.056     7.38651e+10 
        921.176     7.42896e+10 
        921.296     7.41692e+10 
        921.417     7.37058e+10 
        921.537     7.27313e+10 
        921.657     7.11099e+10 
        921.777     6.90277e+10 
        921.897     6.67086e+10 
        922.017     6.40555e+10 
         922.11     6.18523e+10 
        922.137     6.12105e+10 
        922.257     5.83246e+10 
        922.405     5.59511e+10 
        922.552     5.85254e+10 
        922.588       5.946e+10 
        922.699      6.2393e+10 
         922.81     6.53348e+10 
        922.921     6.83947e+10 
        923.032     7.11891e+10 
        923.143     7.39867e+10 
        923.254     7.65634e+10 
        923.366     7.86206e+10 
        923.477     8.03026e+10 
        923.588     8.18061e+10 
        923.699     8.27829e+10 
         923.81     8.32824e+10 
        923.921     8.33565e+10 
        924.032     8.29713e+10 
        924.143     8.23126e+10 
        924.254     8.10971e+10 
        924.366     7.92467e+10 
        924.477     7.69976e+10 
        924.588      7.4435e+10 
        924.699     7.15853e+10 
         924.81     6.80406e+10 
        925.032     6.14678e+10 
        925.143     5.80912e+10 
        925.254     5.46395e+10 
        925.366      5.1268e+10 
        925.434     4.94524e+10 
         925.47     4.88907e+10 
        925.477     4.88502e+10 
        925.484     4.88367e+10 
        925.534     4.94584e+10 
        925.634     5.22522e+10 
        925.734     5.53571e+10 
        925.834     5.85876e+10 
        925.934     6.17647e+10 
        926.134     6.84248e+10 
        926.232     7.20304e+10 
        926.301     7.44639e+10 
        926.335     7.56021e+10 
        926.369     7.66784e+10 
        926.505     8.11175e+10 
        926.641     8.55361e+10 
        926.777     8.93975e+10 
        926.913      9.2529e+10 
        927.049     9.55613e+10 
        927.185     9.80702e+10 
        927.322     9.99202e+10 
        927.458     1.01224e+11 
        927.594     1.02053e+11 
         927.73     1.02364e+11 
        927.866     1.02105e+11 
        928.002     1.01246e+11 
        928.006     1.01211e+11 
        928.094     1.00326e+11 
        928.138     9.97782e+10 
        928.182     9.91543e+10 
        928.359     9.58563e+10 
        928.535     9.13726e+10 
        928.711     8.68638e+10 
        928.887     8.14169e+10 
        928.985     7.80711e+10 
        929.037     7.62684e+10 
        929.063     7.53404e+10 
        929.089     7.43957e+10 
        929.125     7.32798e+10 
        929.193     7.10324e+10 
        929.252     6.89401e+10 
        929.261     6.86108e+10 
        929.398     6.37844e+10 
        929.543     5.87707e+10 
        929.607     5.65352e+10 
        929.655     5.50039e+10 
        929.688     5.38387e+10 
        929.769     5.11436e+10 
        929.827     4.91587e+10 
        929.883     4.73162e+10 
         929.91     4.64956e+10 
        929.939     4.55811e+10 
        929.954      4.5145e+10 
        929.968     4.47938e+10 
        929.982     4.45214e+10 
        929.996     4.43499e+10 
         930.01     4.42921e+10 
        930.024     4.43495e+10 
        930.038     4.45211e+10 
        930.052     4.47931e+10 
        930.081     4.55801e+10 
        930.137     4.73143e+10 
        930.201     4.93965e+10 
        930.247     5.10075e+10 
        930.249     5.10744e+10 
        930.251     5.11407e+10 
        930.301     5.27756e+10 
        930.326     5.35758e+10 
        930.329     5.36892e+10 
        930.402     5.61739e+10 
        930.478     5.87918e+10 
         930.48     5.88483e+10 
         930.63     6.41086e+10 
        930.781     6.96428e+10 
        930.931     7.49213e+10 
        931.081      8.0677e+10 
        931.232      8.6488e+10 
        931.383     9.18212e+10 
        931.534     9.72772e+10 
        931.788     1.06746e+11 
        931.832     1.08236e+11 
        931.835     1.08336e+11 
        931.838     1.08435e+11 
        931.888     1.10044e+11 
        931.988     1.13049e+11 
        932.188     1.18607e+11 
        932.389     1.23202e+11 
        932.589     1.26909e+11 
        932.789     1.29883e+11 
        932.989     1.32176e+11 
        933.189     1.33908e+11 
        933.347      1.3491e+11 
        933.375      1.3505e+11 
        933.377      1.3506e+11 
        933.389     1.35116e+11 
        933.403     1.35179e+11 
        933.432     1.35263e+11 
         933.46      1.3533e+11 
        933.542     1.35445e+11 
        933.652     1.35402e+11 
        933.762     1.35097e+11 
        933.872     1.34545e+11 
        933.982     1.33749e+11 
        934.092     1.32697e+11 
        934.202     1.31353e+11 
        934.312     1.29699e+11 
        934.413      1.2791e+11 
        934.422      1.2774e+11 
        934.533     1.25481e+11 
        934.652     1.22658e+11 
        934.771     1.19468e+11 
         934.89     1.16426e+11 
        935.009     1.13078e+11 
        935.026     1.12575e+11 
        935.128     1.09528e+11 
         935.23     1.06402e+11 
        935.332     1.03039e+11 
        935.434     9.95027e+10 
        935.537     9.58051e+10 
        935.639     9.20562e+10 
        935.843     8.47727e+10 
         935.95     8.07616e+10 
        936.047     7.70727e+10 
        936.144     7.33804e+10 
        936.338     6.65207e+10 
        936.464     6.19415e+10 
        936.532     5.95495e+10 
        936.601     5.70768e+10 
        936.645     5.54026e+10 
        936.714     5.31419e+10 
        936.737     5.23396e+10 
        936.829      4.9148e+10 
        936.887     4.71013e+10 
        936.944     4.50972e+10 
        936.973     4.40514e+10 
        937.001     4.29629e+10 
        937.015     4.24354e+10 
        937.029      4.1989e+10 
        937.043     4.16343e+10 
        937.058     4.13873e+10 
        937.072     4.13104e+10 
        937.086      4.1387e+10 
        937.101      4.1634e+10 
        937.115     4.19886e+10 
        937.143     4.29619e+10 
         937.15     4.32258e+10 
        937.186     4.46169e+10 
        937.199     4.50552e+10 
         937.25     4.68672e+10 
        937.314     4.91075e+10 
        937.341     4.99642e+10 
        937.442     5.35359e+10 
        937.543     5.70576e+10 
        937.746     6.42544e+10 
        937.896     6.97679e+10 
        937.948     7.15875e+10 
            938     7.33898e+10 
        938.104       7.739e+10 
        938.208     8.14181e+10 
        938.416     8.93127e+10 
        938.752     1.02215e+11 
        938.833     1.05321e+11 
        938.914     1.08346e+11 
        939.076     1.14165e+11 
        939.139     1.16503e+11 
        939.205     1.18913e+11 
        939.238     1.20102e+11 
        939.271     1.21278e+11 
        939.403     1.25965e+11 
        939.535     1.31045e+11 
        939.667     1.35839e+11 
          939.8     1.40354e+11 
        939.932     1.44625e+11 
        940.064     1.48597e+11 
        940.196     1.52274e+11 
        940.328     1.55764e+11 
         940.46      1.5901e+11 
        940.592     1.62008e+11 
        940.676     1.63794e+11 
        940.708     1.64452e+11 
        940.724     1.64775e+11 
         940.74     1.65087e+11 
        940.804     1.66182e+11 
        940.933     1.68261e+11 
        941.189     1.72002e+11 
        941.445     1.75217e+11 
        941.701     1.77973e+11 
        941.958     1.80321e+11 
        942.214      1.8224e+11 
        942.405     1.83416e+11 
         942.47     1.83772e+11 
        942.726     1.84962e+11 
        943.048     1.85972e+11 
        943.369     1.86157e+11 
         943.69     1.85568e+11 
         943.85     1.84984e+11 
        944.011     1.84187e+11 
        944.172     1.82914e+11 
        944.333      1.8128e+11 
        944.493     1.79314e+11 
        944.654     1.76995e+11 
        944.814     1.74317e+11 
        944.975     1.71283e+11 
        945.135     1.67837e+11 
        945.258     1.64949e+11 
        945.286      1.6425e+11 
        945.297     1.63971e+11 
        945.308      1.6369e+11 
        945.358     1.62382e+11 
        945.458     1.59853e+11 
        945.658     1.54398e+11 
        945.858     1.48458e+11 
        946.058     1.42864e+11 
        946.258     1.36896e+11 
        946.459     1.30533e+11 
         946.56     1.27178e+11 
        946.659     1.23788e+11 
        946.859     1.17099e+11 
        947.158     1.06894e+11 
        947.431     9.71801e+10 
        947.458     9.61902e+10 
        947.621     9.01537e+10 
        947.757     8.50665e+10 
        947.852     8.14992e+10 
        947.967     7.71374e+10 
        948.083     7.28026e+10 
        948.198     6.86699e+10 
        948.314      6.4522e+10 
        948.429     6.03789e+10 
        948.546     5.63256e+10 
        948.661     5.21932e+10 
        948.777     4.80101e+10 
        948.835     4.58867e+10 
        948.893     4.36955e+10 
        948.922     4.24734e+10 
        948.951     4.11187e+10 
        948.966     4.04244e+10 
         948.98     3.98624e+10 
        948.994     3.94056e+10 
        949.009     3.90852e+10 
        949.023     3.89847e+10 
        949.037     3.90849e+10 
        949.052     3.94053e+10 
        949.066     3.98618e+10 
        949.095     4.11175e+10 
        949.153     4.36926e+10 
         949.23     4.65757e+10 
        949.258     4.76187e+10 
        949.269      4.8002e+10 
         949.28     4.83768e+10 
         949.33     5.01907e+10 
         949.36     5.12812e+10 
         949.43     5.37728e+10 
          949.5     5.62983e+10 
        949.598      5.9722e+10 
         949.64     6.12117e+10 
        949.781     6.62232e+10 
        949.963     7.27122e+10 
        950.145     7.95316e+10 
        950.327     8.63514e+10 
        950.495     9.26003e+10 
        950.691     9.98084e+10 
        950.888     1.06801e+11 
        951.084     1.13616e+11 
        951.476     1.27248e+11 
        951.783     1.37768e+11 
        951.868     1.40577e+11 
        952.261     1.53222e+11 
          952.5     1.61315e+11 
        952.738     1.69073e+11 
        952.976     1.76603e+11 
        953.216     1.83459e+11 
        953.454     1.89731e+11 
        953.693     1.95406e+11 
        953.812      1.9801e+11 
        953.931      2.0047e+11 
        954.051     2.02652e+11 
         954.17     2.04511e+11 
        954.409     2.07945e+11 
        954.648     2.11034e+11 
        954.886     2.13767e+11 
        955.125     2.16117e+11 
        955.363     2.18252e+11 
        955.669     2.20703e+11 
        955.841     2.21959e+11 
        956.014      2.2311e+11 
        956.359     2.25065e+11 
        956.705     2.26749e+11 
         957.05     2.28191e+11 
        957.741     2.30455e+11 
        958.431      2.3201e+11 
        958.955     2.32772e+11 
        959.122     2.32942e+11 
        959.289     2.33078e+11 
        959.623     2.33171e+11 
        960.154     2.33036e+11 
        960.292     2.32943e+11 
         960.43     2.32827e+11 
        960.706     2.32462e+11 
        961.258     2.31427e+11 
        961.811     2.29965e+11 
        962.363     2.28022e+11 
        962.706      2.2655e+11 
        962.916     2.25534e+11 
        963.087      2.2464e+11 
        963.468     2.22414e+11 
         963.85     2.19848e+11 
        964.231     2.16912e+11 
        964.612       2.135e+11 
        964.994      2.0964e+11 
        965.375     2.05293e+11 
        965.756     2.00407e+11 
        966.137     1.94946e+11 
        966.519     1.88871e+11 
        966.531     1.88669e+11 
          966.9     1.82131e+11 
        966.906     1.82019e+11 
        967.281     1.74721e+11 
        967.657     1.66716e+11 
        968.032        1.58e+11 
        968.268     1.52146e+11 
        968.407     1.48569e+11 
        968.525     1.45454e+11 
        968.783     1.38442e+11 
         969.04     1.31113e+11 
        969.297      1.2348e+11 
        969.554     1.15564e+11 
        969.696     1.11093e+11 
        969.811     1.07419e+11 
        969.927     1.03704e+11 
        970.157     9.61491e+10 
         970.36     8.93604e+10 
        970.387     8.84506e+10 
        970.401     8.79778e+10 
        970.617     8.06293e+10 
        970.874     7.18347e+10 
         971.11     6.37897e+10 
        971.229     5.97675e+10 
        971.348     5.57972e+10 
        971.467     5.15963e+10 
        971.585     4.72521e+10 
        971.644     4.50083e+10 
        971.703     4.25161e+10 
        971.732     4.09805e+10 
        971.762     3.91863e+10 
        971.778     3.81747e+10 
        971.792      3.7427e+10 
        971.806     3.68506e+10 
        971.821     3.64513e+10 
        971.836     3.63146e+10 
        971.851      3.6451e+10 
        971.866     3.68503e+10 
         971.88     3.74264e+10 
         971.91     3.91848e+10 
        971.969      4.2512e+10 
        972.037     4.53539e+10 
        972.087     4.72414e+10 
        972.137     4.90984e+10 
         972.15     4.95951e+10 
        972.237     5.27235e+10 
        972.324     5.57639e+10 
        972.499      6.1595e+10 
        972.548     6.32472e+10 
        972.673      6.7472e+10 
        972.798     7.17141e+10 
        973.048     8.01983e+10 
        973.351     9.03707e+10 
        973.548      9.6855e+10 
        973.746     1.03223e+11 
        973.943     1.09463e+11 
         974.14     1.15561e+11 
        974.337     1.21527e+11 
        974.534     1.27321e+11 
        974.731     1.32949e+11 
        974.928     1.38393e+11 
        975.006     1.40472e+11 
        975.126     1.43652e+11 
        975.323     1.48732e+11 
         975.64     1.56509e+11 
        975.957     1.63802e+11 
        976.275     1.70614e+11 
        976.592     1.76951e+11 
        976.909     1.82842e+11 
        977.226     1.88312e+11 
        977.543     1.93362e+11 
        977.861     1.98024e+11 
        978.178     2.02324e+11 
        978.495     2.06271e+11 
        978.812     2.09904e+11 
        978.955     2.11434e+11 
         979.13     2.13241e+11 
        979.305     2.14967e+11 
        979.655     2.18155e+11 
        980.005     2.21049e+11 
        980.356     2.23678e+11 
        981.056     2.28228e+11 
        981.757     2.31988e+11 
        982.457     2.35096e+11 
        983.158     2.37661e+11 
        983.793     2.39606e+11 
        983.858     2.39786e+11 
        983.923     2.39964e+11 
        984.053     2.40301e+11 
        984.314      2.4094e+11 
        984.834     2.42085e+11 
        985.131     2.42669e+11 
        985.875     2.43931e+11 
        986.618     2.44951e+11 
        986.898     2.45269e+11 
        988.105      2.4635e+11 
        989.312      2.4705e+11 
        989.572     2.47145e+11 
        990.519     2.47386e+11 
        991.726      2.4749e+11 
         993.88     2.47231e+11 
        996.033     2.46388e+11 
        997.926     2.45347e+11 
        998.187     2.45183e+11 
        998.447     2.45015e+11 
        998.615       2.449e+11 
        998.967     2.44652e+11 
        999.319     2.44396e+11 
        1000.02     2.43846e+11 
        1001.43     2.42632e+11 
        1004.18     2.39759e+11 
        1004.25     2.39673e+11 
        1004.32     2.39586e+11 
        1004.47     2.39404e+11 
        1004.75     2.39032e+11 
        1005.33     2.38255e+11 
        1006.48      2.3656e+11 
        1008.25     2.33491e+11 
        1008.79     2.32425e+11 
        1009.33      2.3128e+11 
         1010.4     2.28705e+11 
        1010.75     2.27762e+11 
        1011.47     2.25683e+11 
        1011.64     2.25133e+11 
        1012.54     2.22088e+11 
        1013.43     2.18543e+11 
        1014.33     2.14356e+11 
        1015.22     2.09381e+11 
        1015.67     2.06535e+11 
        1016.12     2.03421e+11 
        1016.57     2.00002e+11 
        1017.01     1.96241e+11 
        1017.46     1.92124e+11 
        1017.91     1.87606e+11 
        1018.27     1.83598e+11 
        1018.36     1.82633e+11 
         1018.8     1.77165e+11 
        1019.33     1.69982e+11 
         1019.6     1.66096e+11 
        1019.86     1.62001e+11 
        1020.13      1.5769e+11 
        1020.39     1.53162e+11 
        1020.66     1.48409e+11 
         1020.8     1.45696e+11 
        1020.92     1.43409e+11 
        1021.04     1.41079e+11 
        1021.28     1.36265e+11 
        1021.52     1.31261e+11 
        1021.76     1.26071e+11 
           1022     1.20686e+11 
        1022.24     1.15101e+11 
         1022.4     1.11328e+11 
        1022.48     1.09325e+11 
        1022.72     1.03366e+11 
        1023.04     9.51086e+10 
        1023.37     8.65518e+10 
        1023.69     7.77557e+10 
        1023.91      7.1563e+10 
        1023.97     6.96881e+10 
        1024.01     6.87484e+10 
        1024.04     6.78084e+10 
        1024.17     6.40297e+10 
        1024.34     5.92787e+10 
        1024.44     5.64566e+10 
        1024.54     5.36295e+10 
        1024.69     4.91556e+10 
        1024.74     4.75436e+10 
        1024.79     4.57196e+10 
        1024.87     4.29321e+10 
        1024.87     4.26346e+10 
        1024.89     4.16594e+10 
        1024.91     4.05357e+10 
