# Koester WD models
# teff = 70000 K (value for the effective temperature for the model. Temperatures are given in K)
# logg = 9.5 log(cm/s2) (value for Log(G) for the model.)
#
# column 1: WAVELENGTH (ANGSTROM), Wavelength in Angstrom
# column 2: FLUX (ERG/CM2/S/A), Flux in erg/cm2/s/A
         899.23     2.51365e+11 
        904.235     2.48213e+11 
         908.45     2.45585e+11 
        909.241     2.45093e+11 
        910.032     2.44602e+11 
        911.193     2.43881e+11 
        911.613      2.4362e+11 
        912.034     2.43358e+11 
        912.465      2.4309e+11 
        912.875     2.42835e+11 
        913.037     2.42734e+11 
        913.241     2.42606e+11 
        913.284      2.4258e+11 
        913.478     2.42458e+11 
        913.531     2.42425e+11 
        913.755     2.42286e+11 
        913.822     2.42244e+11 
         914.08     2.42082e+11 
        914.165     2.42029e+11 
        914.499     2.41818e+11 
        914.575     2.41771e+11 
        915.071     2.41458e+11 
         915.54     2.41159e+11 
        915.609     2.41116e+11 
        915.643     2.41094e+11 
        915.677     2.41073e+11 
        915.741     2.41034e+11 
        915.813      2.4099e+11 
        916.085     2.40823e+11 
        916.429     2.40611e+11 
        916.858     2.40344e+11 
        917.118     2.40179e+11 
        917.196     2.40129e+11 
        917.378     2.40013e+11 
        917.899     2.39677e+11 
        917.952     2.39643e+11 
        918.287     2.39418e+11 
        918.602     2.39205e+11 
        919.251     2.38764e+11 
        920.215     2.38206e+11 
        921.882     2.37107e+11 
        921.999     2.37006e+11 
        922.143      2.3688e+11 
        922.405     2.36657e+11 
         922.81     2.36414e+11 
        923.621     2.36229e+11 
        925.001     2.35081e+11 
        925.242     2.34795e+11 
        925.484     2.34553e+11 
        925.564     2.34534e+11 
        925.966     2.34617e+11 
        926.164     2.34655e+11 
        926.369     2.34657e+11 
        926.669     2.34793e+11 
        927.173      2.3474e+11 
        927.276     2.34674e+11 
        927.678     2.34403e+11 
        928.182     2.33625e+11 
        928.917      2.3212e+11 
         928.98     2.31967e+11 
        929.089     2.31658e+11 
        929.261     2.31195e+11 
        929.317     2.31058e+11 
        929.543     2.30454e+11 
        929.655     2.30179e+11 
        929.769     2.29914e+11 
        929.827     2.29794e+11 
        929.883     2.29699e+11 
         929.91     2.29668e+11 
        929.939     2.29645e+11 
        929.954     2.29639e+11 
        929.968     2.29636e+11 
        929.982     2.29636e+11 
        929.996     2.29639e+11 
         930.01     2.29646e+11 
        930.024     2.29655e+11 
        930.038     2.29667e+11 
        930.052     2.29683e+11 
        930.081     2.29726e+11 
        930.137     2.29843e+11 
        930.201     2.30027e+11 
        930.247     2.30175e+11 
        930.249     2.30182e+11 
        930.251     2.30189e+11 
        930.301     2.30364e+11 
        930.326     2.30445e+11 
        930.329     2.30456e+11 
        930.402     2.30714e+11 
        930.478     2.30988e+11 
         930.63     2.31576e+11 
        930.931     2.32714e+11 
        931.229     2.33778e+11 
         931.49     2.34704e+11 
        931.534     2.34843e+11 
        931.838     2.35644e+11 
        931.968     2.35963e+11 
        932.447     2.36871e+11 
        932.925     2.37097e+11 
        933.265     2.36907e+11 
        933.403     2.36696e+11 
        933.432     2.36664e+11 
        933.542     2.36514e+11 
        933.652     2.36314e+11 
        933.872     2.35774e+11 
        933.973     2.35438e+11 
        934.073     2.35046e+11 
        934.312      2.3381e+11 
        934.362     2.33494e+11 
        934.652     2.32119e+11 
        934.941      2.3031e+11 
         935.23     2.27959e+11 
        935.473     2.25888e+11 
        935.688     2.24034e+11 
        935.809     2.22739e+11 
        936.144     2.19422e+11 
        936.372     2.17098e+11 
        936.601     2.15007e+11 
        936.714     2.13999e+11 
        936.829     2.13004e+11 
        936.887     2.12434e+11 
        936.944     2.11849e+11 
        936.973     2.11562e+11 
        937.001     2.11294e+11 
        937.015     2.11175e+11 
        937.029      2.1108e+11 
        937.043     2.11007e+11 
        937.058     2.10961e+11 
        937.072     2.10955e+11 
        937.086     2.10988e+11 
        937.101     2.11062e+11 
        937.115     2.11161e+11 
        937.143     2.11429e+11 
          937.2     2.12097e+11 
        937.314     2.13476e+11 
        937.493     2.15427e+11 
        937.542     2.15981e+11 
        937.593      2.1656e+11 
        937.694     2.17736e+11 
        937.788     2.18834e+11 
        937.894     2.20156e+11 
            938     2.21592e+11 
        938.212     2.24348e+11 
        938.359     2.26325e+11 
        938.556     2.28951e+11 
        938.636     2.29922e+11 
        938.914     2.33358e+11 
        939.271      2.3774e+11 
        939.628     2.41417e+11 
        939.986     2.45018e+11 
        940.343     2.48112e+11 
         940.58      2.4975e+11 
         940.66     2.50239e+11 
          940.7     2.50472e+11 
         940.74     2.50702e+11 
        940.901     2.51703e+11 
        941.221     2.53366e+11 
        941.541     2.54726e+11 
        941.861     2.55745e+11 
        941.957     2.55974e+11 
        942.182     2.56386e+11 
        942.502     2.56614e+11 
        943.048     2.56069e+11 
         943.32     2.55451e+11 
        943.593     2.54641e+11 
        943.865     2.53448e+11 
        944.139     2.51825e+11 
        944.411     2.49704e+11 
        944.684      2.4699e+11 
        944.956     2.43934e+11 
        945.151     2.41431e+11 
         945.23     2.40327e+11 
        945.308     2.39163e+11 
        945.464     2.37123e+11 
        945.776     2.32817e+11 
        946.088     2.27596e+11 
        946.401      2.2174e+11 
        946.892     2.13424e+11 
        947.025     2.10913e+11 
        947.158     2.08251e+11 
        947.425     2.02805e+11 
        947.831     1.94426e+11 
        947.957     1.91557e+11 
        948.083      1.8907e+11 
        948.125     1.88171e+11 
        948.335     1.83556e+11 
        948.546     1.79782e+11 
        948.693     1.77491e+11 
        948.735     1.76975e+11 
        948.756     1.76735e+11 
        948.777     1.76488e+11 
        948.829     1.75946e+11 
        948.835     1.75915e+11 
        948.861      1.7576e+11 
        948.893     1.75634e+11 
        948.922     1.75604e+11 
        948.951     1.75669e+11 
        948.966     1.75719e+11 
         948.98     1.75771e+11 
        948.994     1.75821e+11 
        949.009     1.75856e+11 
        949.023     1.75866e+11 
        949.037     1.75852e+11 
        949.052     1.75812e+11 
        949.066     1.75759e+11 
        949.095     1.75647e+11 
        949.153     1.75595e+11 
         949.23     1.75998e+11 
        949.258     1.76272e+11 
        949.269     1.76412e+11 
         949.28     1.76543e+11 
         949.33     1.77069e+11 
         949.36     1.77495e+11 
         949.43     1.78545e+11 
          949.5     1.79638e+11 
         949.64     1.82174e+11 
        949.781     1.84833e+11 
        949.795     1.85107e+11 
        949.879     1.87047e+11 
        949.921     1.87967e+11 
        949.963     1.88866e+11 
        950.047     1.90578e+11 
        950.131     1.92343e+11 
        950.467      1.9975e+11 
        950.888     2.08617e+11 
        951.308     2.17091e+11 
        951.728     2.25178e+11 
          952.4     2.39574e+11 
        952.569     2.42593e+11 
        952.738     2.45698e+11 
        953.076     2.52645e+11 
        953.415     2.58954e+11 
        953.753     2.64783e+11 
        954.091     2.69845e+11 
         954.43     2.74327e+11 
        954.768     2.78264e+11 
        955.106     2.82213e+11 
        955.552     2.86771e+11 
        955.783     2.88834e+11 
        956.014     2.90665e+11 
        956.476      2.9377e+11 
        956.939     2.96321e+11 
        957.401     2.98472e+11 
        957.864     3.00178e+11 
        958.326     3.01474e+11 
        958.788     3.02388e+11 
        959.137      3.0282e+11 
        959.213     3.02886e+11 
        959.251     3.02915e+11 
        959.289     3.02941e+11 
        959.441     3.03013e+11 
        959.745     3.03044e+11 
        960.278     3.02703e+11 
        960.354     3.02613e+11 
         960.43     3.02512e+11 
        960.582     3.02257e+11 
        960.886     3.01616e+11 
        961.495     2.99797e+11 
        962.103     2.97218e+11 
        962.712     2.93815e+11 
         963.32     2.89603e+11 
        963.626     2.87115e+11 
        963.929     2.84408e+11 
        964.231     2.81595e+11 
        964.835      2.7511e+11 
         965.44     2.67474e+11 
        966.044     2.58678e+11 
        966.649     2.49535e+11 
        967.253     2.39364e+11 
        967.684     2.31425e+11 
        967.858     2.28065e+11 
        968.032     2.24607e+11 
         968.38      2.1807e+11 
        968.858     2.08907e+11 
        969.077     2.04319e+11 
        969.297     1.99749e+11 
        969.547     1.94465e+11 
        969.736     1.90683e+11 
        969.738     1.90653e+11 
        969.927     1.86593e+11 
        970.306     1.78373e+11 
        970.401     1.76408e+11 
        970.874     1.66214e+11 
         971.11     1.61135e+11 
        971.348     1.55865e+11 
        971.467     1.53363e+11 
        971.585     1.50349e+11 
        971.644     1.48588e+11 
        971.703     1.46172e+11 
        971.732       1.447e+11 
        971.762     1.43129e+11 
        971.778     1.42341e+11 
        971.792     1.41752e+11 
        971.806     1.41293e+11 
        971.821     1.40979e+11 
        971.836     1.40868e+11 
        971.851     1.40972e+11 
        971.866      1.4128e+11 
         971.88     1.41734e+11 
         971.91     1.43097e+11 
        971.969     1.46113e+11 
        972.037     1.48801e+11 
        972.087     1.50233e+11 
        972.137     1.51533e+11 
         972.15      1.5182e+11 
        972.199      1.5304e+11 
        972.237     1.53981e+11 
        972.324     1.55628e+11 
        972.499      1.5945e+11 
        972.798       1.657e+11 
        973.047     1.70813e+11 
        973.396     1.78076e+11 
        973.746     1.85426e+11 
        974.444     1.99495e+11 
        974.645     2.03575e+11 
        975.143     2.13188e+11 
         975.64     2.22238e+11 
        976.137     2.31769e+11 
        976.635     2.40704e+11 
        977.132     2.49095e+11 
         977.63     2.56989e+11 
        977.944     2.62144e+11 
        978.624     2.72561e+11 
        979.305     2.81949e+11 
        979.985     2.90518e+11 
        980.666     2.98645e+11 
        981.346     3.06094e+11 
        982.027     3.12954e+11 
        982.707     3.19176e+11 
        982.853     3.20424e+11 
        983.388     3.24825e+11 
        983.923     3.28903e+11 
        984.994     3.36355e+11 
        985.511     3.39644e+11 
        986.065     3.42911e+11 
        986.618     3.45946e+11 
        987.725     3.51268e+11 
        988.352     3.53929e+11 
        988.832     3.55804e+11 
        989.312     3.57551e+11 
        990.273     3.60545e+11 
        990.509     3.61211e+11 
        991.234     3.63093e+11 
        992.194     3.65267e+11 
         993.88     3.68232e+11 
        995.565     3.69825e+11 
        996.053     3.70095e+11 
         997.25       3.704e+11 
        997.574     3.70391e+11 
        998.447      3.7018e+11 
        999.319     3.69605e+11 
        1001.06     3.67409e+11 
         1001.3     3.67023e+11 
        1002.81     3.63919e+11 
        1004.32     3.59712e+11 
        1005.84     3.54114e+11 
        1007.35     3.47171e+11 
         1008.4      3.4145e+11 
        1008.86     3.38664e+11 
        1009.33     3.35707e+11 
        1010.25     3.29217e+11 
        1011.18     3.22064e+11 
        1012.11     3.14175e+11 
        1013.04     3.05547e+11 
        1013.61     2.99908e+11 
        1013.97     2.96182e+11 
        1014.33     2.92329e+11 
        1015.05     2.84252e+11 
        1015.77     2.75689e+11 
        1016.49      2.6668e+11 
        1016.53     2.66165e+11 
        1017.21       2.572e+11 
        1017.23     2.56932e+11 
        1017.93     2.47313e+11 
        1018.63     2.37186e+11 
        1019.33     2.26592e+11 
        1020.03     2.15603e+11 
        1020.42     2.09357e+11 
        1020.73      2.0427e+11 
        1021.04       1.991e+11 
        1021.67      1.8868e+11 
        1022.78     1.69485e+11 
        1022.91     1.67222e+11 
        1023.04     1.64923e+11 
         1023.3     1.60205e+11 
        1023.62     1.54539e+11 
        1023.83     1.50645e+11 
        1024.04      1.4671e+11 
        1024.39      1.4005e+11 
        1024.46     1.38569e+11 
        1024.54      1.3692e+11 
        1024.59      1.3579e+11 
        1024.69     1.33353e+11 
        1024.79     1.30589e+11 
        1024.87      1.2789e+11 
        1024.87     1.27809e+11 
        1024.89     1.26682e+11 
        1024.91     1.25407e+11 
        1024.95     1.23637e+11 
        1024.95     1.23329e+11 
        1024.96     1.22643e+11 
        1024.98     1.21955e+11 
        1024.99     1.21195e+11 
        1025.01     1.20533e+11 
        1025.03     1.20041e+11 
        1025.04     1.19735e+11 
        1025.04     1.19687e+11 
        1025.05     1.19614e+11 
        1025.06      1.1961e+11 
        1025.06     1.19607e+11 
        1025.07     1.19682e+11 
        1025.09     1.19927e+11 
         1025.1     1.20371e+11 
        1025.13      1.2172e+11 
         1025.2     1.25115e+11 
        1025.27     1.28607e+11 
        1025.32     1.30325e+11 
        1025.37      1.3171e+11 
        1025.47      1.3435e+11 
        1025.57     1.36602e+11 
        1025.67     1.38721e+11 
        1025.87     1.42504e+11 
        1025.87      1.4256e+11 
        1026.07     1.46146e+11 
        1026.47      1.5326e+11 
        1027.07     1.63697e+11 
        1027.47      1.7042e+11 
        1027.67      1.7372e+11 
        1028.27     1.83511e+11 
         1028.8     1.91829e+11 
        1029.07     1.96121e+11 
        1029.34     2.00357e+11 
        1029.88     2.08631e+11 
        1030.96     2.24471e+11 
        1032.05     2.39317e+11 
        1033.08     2.52394e+11 
        1033.13     2.53031e+11 
        1033.19     2.53667e+11 
        1033.23     2.54191e+11 
        1033.29     2.54932e+11 
         1033.5      2.5744e+11 
        1033.91     2.62342e+11 
        1033.99     2.63194e+11 
        1034.75     2.71743e+11 
        1035.51     2.79841e+11 
        1036.27     2.87473e+11 
        1037.02     2.94678e+11 
        1037.78     3.01464e+11 
        1038.54     3.07866e+11 
        1039.17     3.12897e+11 
        1039.26     3.13564e+11 
         1039.3     3.13894e+11 
        1039.34     3.14222e+11 
        1039.52     3.15526e+11 
        1039.86     3.18077e+11 
        1040.55     3.22943e+11 
        1041.92     3.31796e+11 
        1042.26     3.33763e+11 
         1043.3      3.3949e+11 
        1044.35     3.44614e+11 
        1045.39     3.49201e+11 
        1045.61     3.50105e+11 
        1046.44     3.53294e+11 
        1047.48     3.56888e+11 
        1049.35      3.6221e+11 
        1051.22     3.66322e+11 
        1051.82     3.67422e+11 
        1053.09      3.6941e+11 
        1054.35      3.7101e+11 
        1054.41     3.71072e+11 
        1056.88     3.73221e+11 
        1059.36     3.74343e+11 
        1061.83     3.74682e+11 
        1064.24     3.74428e+11 
         1064.3     3.74418e+11 
        1064.36     3.74406e+11 
        1064.47      3.7438e+11 
        1064.69     3.74327e+11 
        1065.14     3.74214e+11 
        1066.04     3.73941e+11 
         1066.3      3.7385e+11 
        1067.83     3.73243e+11 
        1069.36     3.72505e+11 
        1070.47     3.71902e+11 
        1072.42      3.7072e+11 
        1074.36     3.69407e+11 
        1077.14      3.6735e+11 
        1078.25     3.66473e+11 
        1079.36     3.65571e+11 
        1080.74     3.64431e+11 
        1081.59     3.63705e+11 
        1082.39     3.63011e+11 
        1082.44      3.6297e+11 
        1084.15     3.61469e+11 
        1084.37     3.61274e+11 
         1085.9     3.59888e+11 
        1089.37     3.56687e+11 
        1094.37     3.51927e+11 
        1099.37     3.47064e+11 
        1104.37     3.42151e+11 
        1109.38     3.37212e+11 
        1114.38     3.32271e+11 
        1118.68     3.28026e+11 
        1119.38     3.27341e+11 
        1120.08     3.26657e+11 
        1121.47      3.2529e+11 
        1123.78     3.23022e+11 
        1124.25     3.22557e+11 
        1124.73     3.22089e+11 
        1125.68     3.21156e+11 
        1125.79     3.21049e+11 
        1127.08     3.19792e+11 
        1127.59     3.19293e+11 
        1127.85     3.19041e+11 
        1129.38     3.17536e+11 
        1131.69     3.15284e+11 
        1134.38     3.12658e+11 
        1135.54     3.11533e+11 
        1139.39     3.07788e+11 
        1144.39     3.02914e+11 
        1149.39     2.98009e+11 
        1154.39     2.93037e+11 
        1159.39     2.87954e+11 
        1164.39     2.82682e+11 
        1169.39     2.77119e+11 
         1174.4     2.71084e+11 
        1177.86     2.66478e+11 
         1179.4     2.64281e+11 
        1180.94     2.61971e+11 
        1182.86     2.58898e+11 
        1184.01     2.56931e+11 
        1185.17     2.54862e+11 
        1185.56     2.54139e+11 
        1187.48     2.50357e+11 
         1189.4     2.46169e+11 
        1191.32     2.41493e+11 
        1192.09     2.39481e+11 
        1193.24     2.36247e+11 
         1194.4     2.32746e+11 
        1195.56     2.28961e+11 
        1196.72     2.24881e+11 
        1197.88     2.20467e+11 
        1198.67     2.17237e+11 
        1199.04     2.15667e+11 
         1199.4     2.14056e+11 
        1200.14     2.10711e+11 
        1201.61     2.03499e+11 
        1201.76      2.0271e+11 
        1203.08     1.95512e+11 
         1204.4     1.87632e+11 
        1205.72     1.79017e+11 
        1206.38     1.74431e+11 
        1207.04     1.69629e+11 
        1207.32     1.67529e+11 
         1207.7     1.64613e+11 
        1208.37     1.59376e+11 
        1208.48     1.58402e+11 
         1209.4     1.50679e+11 
        1210.33     1.42523e+11 
        1211.24     1.33966e+11 
        1211.64     1.30158e+11 
        1212.16     1.24961e+11 
        1212.69      1.1964e+11 
        1213.22     1.14176e+11 
        1213.61     1.09913e+11 
        1213.74     1.08477e+11 
        1213.81     1.07784e+11 
        1213.88     1.07029e+11 
        1214.14     1.04068e+11 
        1214.17     1.03675e+11 
        1214.32     1.01932e+11 
        1214.47      1.0008e+11 
        1214.62     9.79464e+10 
        1214.76     9.50885e+10 
        1214.84     9.28865e+10 
        1214.91     8.80529e+10 
        1214.95     8.47143e+10 
        1214.98     8.13522e+10 
           1215     7.99356e+10 
        1215.02     7.89429e+10 
        1215.04     7.81949e+10 
        1215.06     7.77239e+10 
        1215.08     7.75804e+10 
         1215.1     7.77199e+10 
        1215.11     7.81858e+10 
        1215.13     7.89291e+10 
        1215.17     8.13283e+10 
        1215.19     8.33694e+10 
        1215.19     8.35682e+10 
        1215.24     8.80048e+10 
        1215.29      9.1672e+10 
        1215.39     9.49876e+10 
        1215.49     9.69112e+10 
        1215.59     9.85455e+10 
        1215.69     9.98703e+10 
        1215.69     9.99696e+10 
        1215.79     1.01089e+11 
        1215.99     1.03393e+11 
