# Koester WD models
# teff = 70000 K (value for the effective temperature for the model. Temperatures are given in K)
# logg = 8.25 log(cm/s2) (value for Log(G) for the model.)
#
# column 1: WAVELENGTH (ANGSTROM), Wavelength in Angstrom
# column 2: FLUX (ERG/CM2/S/A), Flux in erg/cm2/s/A
         899.23     2.60646e+11 
        904.235     2.57377e+11 
         908.45     2.54654e+11 
        909.241     2.54145e+11 
        910.032     2.53636e+11 
        911.193     2.52888e+11 
        911.613     2.52616e+11 
        912.034     2.52344e+11 
        912.465     2.52068e+11 
        912.875     2.51805e+11 
        913.037     2.51701e+11 
        913.241     2.51569e+11 
        913.284     2.51541e+11 
        913.478     2.51415e+11 
        913.531     2.51381e+11 
        913.755     2.51235e+11 
        913.822     2.51191e+11 
         914.08     2.51021e+11 
        914.165     2.50965e+11 
        914.499     2.50743e+11 
        914.575     2.50692e+11 
        915.071     2.50354e+11 
         915.54     2.50025e+11 
        915.609     2.49976e+11 
        915.643     2.49952e+11 
        915.677     2.49936e+11 
        915.741     2.49906e+11 
        915.813     2.49873e+11 
        916.085     2.49742e+11 
        916.429     2.49559e+11 
        916.858     2.49333e+11 
        917.118     2.49169e+11 
        917.196     2.49116e+11 
        917.378     2.48994e+11 
        917.899     2.48674e+11 
        917.952     2.48635e+11 
        918.287     2.48349e+11 
        918.602     2.48044e+11 
        919.251     2.47557e+11 
        920.215     2.47264e+11 
        921.882     2.46274e+11 
        921.999      2.4596e+11 
        922.143     2.45574e+11 
        922.201      2.4541e+11 
        922.405      2.4499e+11 
        922.607     2.45258e+11 
         922.81     2.45635e+11 
        923.215     2.47004e+11 
        923.621     2.47625e+11 
        924.026     2.47351e+11 
        924.432     2.46085e+11 
        924.837      2.4374e+11 
        925.001      2.4261e+11 
        925.242     2.40933e+11 
        925.363     2.40151e+11 
        925.484     2.39752e+11 
        925.564     2.40098e+11 
        925.605       2.404e+11 
        925.725      2.4144e+11 
        925.966     2.43678e+11 
        926.369     2.47197e+11 
         926.57     2.49064e+11 
        926.771      2.5045e+11 
        926.972     2.51587e+11 
        927.173     2.52381e+11 
        927.375     2.52691e+11 
        927.576     2.52719e+11 
        927.774     2.52246e+11 
        927.777     2.52234e+11 
        927.978     2.51008e+11 
        928.182     2.49593e+11 
        928.387     2.47795e+11 
        928.591     2.45149e+11 
        928.795     2.41948e+11 
        928.909     2.40308e+11 
        928.917     2.40177e+11 
         928.98     2.39099e+11 
        928.999     2.38748e+11 
        929.089     2.36854e+11 
        929.261       2.337e+11 
        929.317     2.32687e+11 
        929.543     2.28127e+11 
        929.655     2.25865e+11 
        929.769     2.23658e+11 
        929.827     2.22616e+11 
        929.883     2.21721e+11 
         929.91     2.21386e+11 
        929.939     2.21096e+11 
        929.954      2.2099e+11 
        929.968     2.20917e+11 
        929.982     2.20869e+11 
        929.996     2.20851e+11 
         930.01      2.2086e+11 
        930.024     2.20894e+11 
        930.038     2.20954e+11 
        930.052     2.21045e+11 
        930.081     2.21315e+11 
        930.137     2.22116e+11 
        930.201     2.23361e+11 
        930.247     2.24344e+11 
        930.249     2.24393e+11 
        930.251     2.24441e+11 
        930.301     2.25628e+11 
        930.326     2.26174e+11 
        930.329     2.26248e+11 
        930.402     2.27963e+11 
        930.478     2.29812e+11 
         930.63     2.33577e+11 
        930.931     2.41008e+11 
        931.229     2.48258e+11 
        931.382     2.51988e+11 
        931.534     2.55481e+11 
        931.686     2.58556e+11 
        931.838     2.61256e+11 
        932.142     2.66245e+11 
        932.294     2.68423e+11 
        932.447     2.70175e+11 
        932.599     2.71567e+11 
        932.707     2.72362e+11 
        932.751     2.72694e+11 
        932.881      2.7356e+11 
        933.055     2.74409e+11 
        933.229     2.74909e+11 
        933.265     2.74972e+11 
        933.403     2.75049e+11 
        933.432     2.75035e+11 
        933.542     2.74869e+11 
        933.652     2.74524e+11 
        933.872     2.73251e+11 
        934.092      2.7119e+11 
        934.312     2.68158e+11 
        934.413      2.6656e+11 
        934.533     2.64712e+11 
        934.652     2.62512e+11 
        934.771     2.59922e+11 
         934.89     2.56979e+11 
        935.009     2.53559e+11 
        935.026     2.53029e+11 
        935.128     2.50044e+11 
         935.23     2.47458e+11 
        935.434     2.41684e+11 
        935.542     2.38451e+11 
        935.639     2.35195e+11 
        935.843     2.27655e+11 
        936.144      2.1732e+11 
         936.29     2.11799e+11 
        936.372     2.09298e+11 
        936.445     2.06766e+11 
        936.601     2.01506e+11 
        936.714     1.97535e+11 
        936.829     1.93808e+11 
        936.887     1.91725e+11 
        936.944      1.8954e+11 
        936.973     1.88425e+11 
        937.001     1.87358e+11 
        937.015     1.86856e+11 
        937.029     1.86441e+11 
        937.043      1.8611e+11 
        937.058     1.85878e+11 
        937.072     1.85806e+11 
        937.086     1.85875e+11 
        937.101     1.86103e+11 
        937.115     1.86431e+11 
        937.143     1.87342e+11 
          937.2     1.89514e+11 
        937.314     1.93739e+11 
        937.493     1.99791e+11 
        937.542     2.01475e+11 
        937.593     2.03142e+11 
        937.694     2.06662e+11 
        937.788     2.09979e+11 
        937.894     2.13621e+11 
            938     2.17799e+11 
        938.106     2.22031e+11 
        938.212     2.25911e+11 
        938.318     2.29475e+11 
        938.424     2.34095e+11 
         938.53     2.38377e+11 
        938.571     2.39993e+11 
        938.743     2.46155e+11 
        938.914     2.52293e+11 
        939.211     2.63565e+11 
        939.241      2.6474e+11 
        939.256     2.65318e+11 
        939.271      2.6589e+11 
        939.331     2.68105e+11 
        939.451     2.72304e+11 
        939.691     2.79718e+11 
        939.932     2.87126e+11 
        940.084     2.91567e+11 
        940.172     2.93947e+11 
        940.248      2.9592e+11 
        940.412     2.99913e+11 
        940.576     3.03482e+11 
         940.69      3.0575e+11 
         940.74     3.06694e+11 
         940.79     3.07603e+11 
        940.891     3.09335e+11 
        941.091     3.12482e+11 
        941.491     3.17851e+11 
        941.891     3.22173e+11 
        942.292     3.25186e+11 
        942.337     3.25434e+11 
        942.692     3.26864e+11 
        943.048     3.27338e+11 
        943.403     3.26682e+11 
        943.758     3.24904e+11 
        943.936     3.23534e+11 
        944.114     3.21737e+11 
        944.292     3.19409e+11 
        944.469     3.16613e+11 
        944.647     3.13322e+11 
        944.696     3.12308e+11 
        945.002     3.06057e+11 
        945.154     3.02477e+11 
        945.308     2.98503e+11 
        945.461     2.94181e+11 
        945.613     2.89455e+11 
        945.766     2.84279e+11 
        945.919     2.78863e+11 
        946.224     2.68211e+11 
        946.515      2.5864e+11 
        946.836     2.47563e+11 
        946.877     2.46056e+11 
        947.158     2.35362e+11 
        947.178     2.34595e+11 
        947.329      2.2874e+11 
        947.481     2.23041e+11 
        947.631     2.16857e+11 
        947.782     2.10274e+11 
        947.932     2.04578e+11 
        948.083     1.98472e+11 
        948.223     1.92443e+11 
        948.314     1.89164e+11 
        948.384     1.86437e+11 
        948.546     1.80053e+11 
        948.661     1.75281e+11 
        948.777      1.7077e+11 
        948.835     1.68527e+11 
        948.893     1.66305e+11 
        948.922     1.65243e+11 
        948.951     1.64308e+11 
        948.966     1.63931e+11 
         948.98     1.63631e+11 
        948.994     1.63405e+11 
        949.009     1.63286e+11 
        949.023     1.63243e+11 
        949.037     1.63279e+11 
        949.052     1.63391e+11 
        949.066     1.63609e+11 
        949.095     1.64272e+11 
        949.153     1.66238e+11 
         949.23     1.69152e+11 
        949.258     1.70166e+11 
        949.269     1.70639e+11 
         949.28     1.71084e+11 
         949.33     1.73076e+11 
         949.36     1.74207e+11 
         949.43     1.77051e+11 
          949.5      1.7978e+11 
         949.64     1.85209e+11 
        949.795     1.90935e+11 
        949.879     1.94391e+11 
        949.921      1.9614e+11 
        949.963     1.97885e+11 
        950.047     2.01309e+11 
        950.131     2.04566e+11 
        950.467     2.18176e+11 
        950.888     2.34422e+11 
        951.098     2.42488e+11 
        951.308     2.50439e+11 
        951.518     2.57821e+11 
        951.623     2.61305e+11 
        951.728     2.64734e+11 
        951.833     2.68983e+11 
        951.939     2.73162e+11 
        952.044     2.77244e+11 
        952.149     2.81211e+11 
        952.359     2.89889e+11 
          952.4     2.91523e+11 
        952.569     2.97975e+11 
        952.738     3.04098e+11 
        953.076     3.15532e+11 
        953.415     3.26229e+11 
        953.753     3.36593e+11 
        954.091     3.45544e+11 
         954.43     3.53058e+11 
        954.768     3.59659e+11 
        955.106      3.6571e+11 
        955.445     3.71063e+11 
        955.552     3.72615e+11 
        955.783      3.7575e+11 
        956.014      3.7843e+11 
        956.476      3.8291e+11 
        956.939      3.8662e+11 
        957.401     3.89645e+11 
        957.864     3.92074e+11 
        958.288     3.93821e+11 
        958.326     3.93959e+11 
        958.788     3.95335e+11 
        959.289     3.96277e+11 
        959.789     3.96494e+11 
         960.15     3.96293e+11 
         960.29     3.96139e+11 
         960.43     3.95938e+11 
         960.71     3.95313e+11 
         961.27     3.93506e+11 
        961.831     3.90915e+11 
        962.391     3.87459e+11 
        962.794     3.84418e+11 
        962.952     3.83092e+11 
        963.512      3.7772e+11 
        963.872     3.73686e+11 
        964.231     3.69169e+11 
         964.59     3.64054e+11 
         964.95     3.58405e+11 
        965.309     3.52207e+11 
        965.668      3.4544e+11 
        966.027     3.38086e+11 
        966.387     3.30288e+11 
        966.746     3.21831e+11 
        967.105     3.12707e+11 
        967.465     3.02891e+11 
        967.616     2.98589e+11 
        967.824     2.92531e+11 
        968.032     2.86252e+11 
        968.448      2.7316e+11 
        968.865      2.5921e+11 
        969.233      2.4639e+11 
        969.265     2.45297e+11 
        969.281     2.44749e+11 
        969.297     2.44199e+11 
        969.361     2.41985e+11 
        969.489     2.37474e+11 
        969.564     2.34807e+11 
        969.703     2.29744e+11 
        969.745     2.28221e+11 
        969.927     2.21492e+11 
        970.289     2.08031e+11 
        970.401     2.03823e+11 
        970.874     1.85628e+11 
         971.11     1.76539e+11 
        971.348     1.67477e+11 
        971.467     1.62674e+11 
        971.585     1.57728e+11 
        971.644     1.55123e+11 
        971.703     1.51818e+11 
        971.732     1.49766e+11 
        971.762      1.4759e+11 
        971.778     1.46518e+11 
        971.792     1.45703e+11 
        971.806     1.45063e+11 
        971.821     1.44626e+11 
        971.836     1.44475e+11 
        971.851      1.4462e+11 
        971.866      1.4505e+11 
         971.88     1.45684e+11 
         971.91     1.47557e+11 
        971.969     1.51756e+11 
        972.037     1.55449e+11 
        972.087     1.57603e+11 
        972.137      1.5985e+11 
         972.15     1.60381e+11 
        972.199     1.62239e+11 
        972.237     1.63893e+11 
        972.324     1.67211e+11 
        972.499     1.73868e+11 
        972.798     1.85014e+11 
        973.047     1.94302e+11 
        973.396     2.07353e+11 
        973.746     2.19953e+11 
        974.095     2.32396e+11 
        974.444     2.44216e+11 
        974.645     2.50981e+11 
        975.143     2.67371e+11 
         975.64     2.82613e+11 
        976.137     2.96885e+11 
        976.635      3.1026e+11 
        977.132      3.2251e+11 
         977.63     3.33684e+11 
        978.127     3.44183e+11 
        978.624     3.53794e+11 
        978.939     3.59458e+11 
        979.122     3.62612e+11 
        979.305     3.65669e+11 
        979.671     3.71421e+11 
        980.404     3.81779e+11 
        981.136     3.90805e+11 
        981.869     3.98715e+11 
        982.601      4.0557e+11 
        982.744     4.06802e+11 
        983.334     4.11536e+11 
        983.923     4.15768e+11 
        985.102     4.22733e+11 
        985.944     4.26804e+11 
        986.281     4.28252e+11 
        986.618     4.29613e+11 
        987.293     4.32004e+11 
        987.971     4.34093e+11 
        988.642      4.3588e+11 
        989.312     4.37423e+11 
        990.653     4.39688e+11 
        991.994     4.41218e+11 
        992.791      4.4184e+11 
        993.335     4.42154e+11 
         993.88     4.42383e+11 
        994.968      4.4244e+11 
        995.845     4.42264e+11 
        997.146     4.41664e+11 
        997.574     4.41381e+11 
        997.806     4.41208e+11 
        998.447     4.40671e+11 
        999.319     4.39719e+11 
        999.435     4.39572e+11 
        1001.06     4.37149e+11 
        1002.69     4.34036e+11 
        1004.32     4.30119e+11 
        1005.84     4.25482e+11 
        1005.95     4.25089e+11 
        1007.58     4.18869e+11 
        1008.45     4.14945e+11 
        1009.33      4.1054e+11 
         1010.2     4.05539e+11 
        1011.07     3.99918e+11 
         1011.3     3.98304e+11 
        1011.94     3.93576e+11 
        1012.06     3.92671e+11 
        1012.82      3.8641e+11 
        1013.57     3.79429e+11 
        1014.33     3.71666e+11 
        1015.09     3.63052e+11 
        1015.84     3.53461e+11 
         1016.6     3.42855e+11 
        1017.36     3.31086e+11 
        1018.11      3.1808e+11 
         1018.4     3.12701e+11 
        1018.87     3.03746e+11 
        1019.33     2.94266e+11 
         1019.8     2.84227e+11 
        1020.26     2.73633e+11 
        1020.41     2.70207e+11 
        1020.73     2.62478e+11 
        1021.04     2.54474e+11 
        1021.68     2.37696e+11 
        1022.32      2.1989e+11 
        1022.88      2.0364e+11 
        1022.96     2.01162e+11 
        1023.04     1.98728e+11 
        1023.04     1.98668e+11 
        1023.21     1.93636e+11 
        1023.54     1.83482e+11 
        1023.54     1.83451e+11 
        1024.04       1.678e+11 
        1024.29     1.59834e+11 
        1024.41      1.5582e+11 
        1024.54     1.51553e+11 
        1024.67     1.47035e+11 
        1024.79     1.42097e+11 
        1024.85     1.39281e+11 
        1024.91     1.34984e+11 
        1024.95     1.31936e+11 
        1024.98      1.2867e+11 
        1024.99     1.27274e+11 
        1025.01      1.2585e+11 
        1025.03     1.24824e+11 
        1025.04     1.24204e+11 
        1025.04     1.24097e+11 
        1025.05     1.23945e+11 
        1025.06     1.23936e+11 
        1025.06     1.23931e+11 
        1025.07     1.24092e+11 
        1025.09     1.24618e+11 
         1025.1     1.25572e+11 
        1025.13     1.28258e+11 
         1025.2     1.34492e+11 
        1025.27      1.3954e+11 
        1025.32     1.41754e+11 
        1025.37     1.43842e+11 
        1025.47     1.47628e+11 
        1025.52     1.49407e+11 
        1025.57     1.51147e+11 
        1025.62      1.5291e+11 
        1025.72     1.56141e+11 
        1025.77     1.57747e+11 
        1025.92     1.62427e+11 
        1026.07     1.67071e+11 
        1026.37     1.76252e+11 
        1026.86     1.90921e+11 
        1026.96     1.93985e+11 
        1027.07     1.97018e+11 
        1027.28     2.03003e+11 
        1027.69     2.14709e+11 
        1027.98     2.22634e+11 
        1028.11     2.25969e+11 
        1028.53     2.36762e+11 
         1028.8     2.43509e+11 
        1029.07     2.50082e+11 
        1029.34     2.56452e+11 
        1029.88     2.68565e+11 
        1030.42     2.79865e+11 
        1030.96      2.9037e+11 
        1031.51     3.00096e+11 
        1032.05       3.091e+11 
        1032.59     3.17405e+11 
        1033.08     3.24351e+11 
        1033.13     3.25057e+11 
        1033.19     3.25755e+11 
        1033.29     3.27137e+11 
         1033.5     3.29833e+11 
        1033.91     3.34963e+11 
        1034.75     3.44259e+11 
        1034.89      3.4577e+11 
        1035.58     3.52336e+11 
        1036.27     3.58198e+11 
        1036.95     3.63404e+11 
         1037.3      3.6581e+11 
        1037.64     3.67997e+11 
        1038.32     3.72049e+11 
        1039.34     3.77195e+11 
        1040.37     3.81436e+11 
        1040.48     3.81845e+11 
        1041.39     3.84895e+11 
        1041.44     3.85062e+11 
        1042.41     3.87691e+11 
        1043.38     3.89818e+11 
        1044.35     3.91515e+11 
        1046.28     3.93852e+11 
        1047.08     3.94484e+11 
        1048.22     3.95106e+11 
        1048.88     3.95341e+11 
        1049.35     3.95457e+11 
        1051.62     3.95498e+11 
        1054.35     3.94675e+11 
        1054.82     3.94462e+11 
        1057.09     3.93189e+11 
        1059.36     3.91612e+11 
        1063.41     3.88251e+11 
        1063.88     3.87826e+11 
        1064.36     3.87396e+11 
        1065.02     3.86783e+11 
         1065.3     3.86523e+11 
        1067.19     3.84723e+11 
        1069.36     3.82586e+11 
        1073.03     3.78845e+11 
         1073.7     3.78154e+11 
        1074.36     3.77462e+11 
        1075.69     3.76074e+11 
        1077.33     3.74343e+11 
        1078.35     3.73268e+11 
        1079.36     3.72188e+11 
        1080.35     3.71138e+11 
         1081.4     3.70023e+11 
        1082.44     3.68908e+11 
        1083.16     3.68141e+11 
        1084.53     3.66674e+11 
         1085.9      3.6521e+11 
        1087.93     3.63049e+11 
        1088.65     3.62279e+11 
        1089.37     3.61509e+11 
        1090.81     3.59973e+11 
        1093.01     3.57636e+11 
        1093.69     3.56913e+11 
        1094.37     3.56191e+11 
        1095.73     3.54752e+11 
        1097.53     3.52854e+11 
        1098.05     3.52308e+11 
        1098.45     3.51887e+11 
        1099.37     3.50919e+11 
        1101.21     3.48993e+11 
        1104.37     3.45704e+11 
        1109.38     3.40555e+11 
        1114.38     3.35478e+11 
        1118.68     3.31165e+11 
        1119.38      3.3047e+11 
        1120.08     3.29779e+11 
        1121.47     3.28403e+11 
        1123.78     3.26129e+11 
        1124.25     3.25664e+11 
        1124.73     3.25196e+11 
        1125.68     3.24266e+11 
        1125.79     3.24159e+11 
        1127.08     3.22909e+11 
        1127.59     3.22412e+11 
        1127.85     3.22161e+11 
        1129.38     3.20672e+11 
        1131.69     3.18451e+11 
        1134.38     3.15878e+11 
        1135.54     3.14781e+11 
        1139.39     3.11149e+11 
        1144.39     3.06481e+11 
        1149.39     3.01866e+11 
        1154.39     2.97293e+11 
        1159.39     2.92746e+11 
        1164.39     2.88197e+11 
        1169.39     2.83612e+11 
         1174.4     2.78928e+11 
        1177.86     2.75573e+11 
