# Koester WD models
# teff = 80000 K (value for the effective temperature for the model. Temperatures are given in K)
# logg = 9.5 log(cm/s2) (value for Log(G) for the model.)
#
# column 1: WAVELENGTH (ANGSTROM), Wavelength in Angstrom
# column 2: FLUX (ERG/CM2/S/A), Flux in erg/cm2/s/A
         899.23     3.40885e+11 
        904.235     3.36213e+11 
         908.45     3.32327e+11 
        909.241     3.31601e+11 
        910.032     3.30876e+11 
        911.193     3.29811e+11 
        911.613     3.29427e+11 
        912.034     3.29041e+11 
        912.465     3.28645e+11 
        912.875     3.28271e+11 
        913.037     3.28124e+11 
        913.241     3.27935e+11 
        913.284     3.27897e+11 
        913.478     3.27718e+11 
        913.531     3.27668e+11 
        913.755     3.27464e+11 
        913.822     3.27404e+11 
         914.08     3.27165e+11 
        914.165     3.27087e+11 
        914.499     3.26779e+11 
        914.575      3.2671e+11 
        915.071     3.26251e+11 
         915.54     3.25818e+11 
        915.609     3.25752e+11 
        915.643      3.2572e+11 
        915.677     3.25692e+11 
        915.741     3.25632e+11 
        915.813     3.25566e+11 
        916.085     3.25321e+11 
        916.429     3.25007e+11 
        916.858     3.24614e+11 
        917.118     3.24373e+11 
        917.196       3.243e+11 
        917.378     3.24131e+11 
        917.899     3.23644e+11 
        917.952     3.23593e+11 
        918.287      3.2327e+11 
        918.602     3.22965e+11 
        919.251     3.22334e+11 
        920.215     3.21489e+11 
        921.882     3.19886e+11 
        921.999     3.19751e+11 
        922.143     3.19585e+11 
        922.405     3.19286e+11 
         922.81     3.18909e+11 
        923.621     3.18466e+11 
        925.001      3.1694e+11 
        925.242     3.16594e+11 
        925.484     3.16289e+11 
        925.564     3.16239e+11 
        925.966     3.16154e+11 
        926.164     3.16107e+11 
        926.369     3.16029e+11 
        927.173     3.15827e+11 
        927.276     3.15727e+11 
        928.182     3.14417e+11 
        928.917      3.1278e+11 
         928.98     3.12618e+11 
        929.089     3.12299e+11 
        929.261     3.11823e+11 
        929.317     3.11682e+11 
        929.543     3.11054e+11 
        929.655     3.10762e+11 
        929.769     3.10475e+11 
        929.827     3.10345e+11 
        929.883     3.10241e+11 
         929.91     3.10207e+11 
        929.939     3.10179e+11 
        929.954      3.1017e+11 
        929.968     3.10164e+11 
        929.982     3.10161e+11 
        929.996     3.10162e+11 
         930.01     3.10164e+11 
        930.024      3.1017e+11 
        930.038     3.10179e+11 
        930.052     3.10191e+11 
        930.081     3.10224e+11 
        930.137     3.10323e+11 
        930.201     3.10485e+11 
        930.247     3.10619e+11 
        930.249     3.10625e+11 
        930.251     3.10632e+11 
        930.301     3.10792e+11 
        930.326     3.10865e+11 
        930.329     3.10875e+11 
        930.402     3.11109e+11 
        930.478     3.11353e+11 
         930.63     3.11875e+11 
        930.931     3.12865e+11 
        931.229     3.13795e+11 
         931.49     3.14609e+11 
        931.534     3.14731e+11 
        931.838      3.1541e+11 
        931.968     3.15683e+11 
        932.447     3.16409e+11 
        932.925      3.1644e+11 
        933.265     3.16094e+11 
        933.403     3.15815e+11 
        933.432     3.15771e+11 
        933.542     3.15586e+11 
        933.652      3.1535e+11 
        933.872     3.14737e+11 
        933.973     3.14363e+11 
        934.073     3.13934e+11 
        934.312     3.12591e+11 
        934.652      3.1076e+11 
         935.23     3.06397e+11 
        935.473     3.04221e+11 
        935.688     3.02297e+11 
        935.809     3.00968e+11 
        936.144      2.9752e+11 
        936.372     2.95121e+11 
        936.601     2.93003e+11 
        936.714     2.91995e+11 
        936.829     2.90993e+11 
        936.887     2.90434e+11 
        936.944     2.89866e+11 
        936.973     2.89591e+11 
        937.001     2.89338e+11 
        937.015     2.89229e+11 
        937.029     2.89141e+11 
        937.043     2.89076e+11 
        937.058     2.89037e+11 
        937.072     2.89035e+11 
        937.086     2.89068e+11 
        937.101     2.89141e+11 
        937.115     2.89236e+11 
        937.143     2.89495e+11 
          937.2     2.90152e+11 
        937.314     2.91536e+11 
        937.493     2.93539e+11 
        937.542     2.94111e+11 
        937.593      2.9471e+11 
        937.694      2.9592e+11 
        937.788      2.9706e+11 
        937.894     2.98441e+11 
            938     2.99936e+11 
        938.212     3.02812e+11 
        938.359     3.04865e+11 
        938.556     3.07568e+11 
        938.636     3.08575e+11 
        938.914     3.12135e+11 
        939.271     3.16629e+11 
        939.628     3.20405e+11 
        939.986      3.2409e+11 
        940.343     3.27222e+11 
         940.58     3.28862e+11 
         940.66     3.29346e+11 
          940.7     3.29578e+11 
         940.74     3.29804e+11 
        940.901     3.30829e+11 
        941.221     3.32506e+11 
        941.861     3.34825e+11 
        941.957     3.35032e+11 
        942.502     3.35491e+11 
        943.048     3.34636e+11 
        943.593     3.32864e+11 
        943.865     3.31447e+11 
        944.139     3.29559e+11 
        944.411     3.27131e+11 
        944.684     3.24036e+11 
        944.956     3.20515e+11 
        945.151     3.17606e+11 
         945.23     3.16324e+11 
        945.308     3.14967e+11 
        945.464      3.1266e+11 
        945.776     3.07868e+11 
        946.088     3.02013e+11 
        946.401     2.95339e+11 
        946.892     2.85733e+11 
        947.025     2.82868e+11 
        947.158       2.798e+11 
        947.425     2.73451e+11 
        947.831     2.63744e+11 
        947.957     2.60348e+11 
        948.083     2.57443e+11 
        948.125     2.56409e+11 
        948.335     2.51054e+11 
        948.546     2.46943e+11 
        948.693     2.44519e+11 
        948.735     2.44012e+11 
        948.756     2.43792e+11 
        948.777     2.43566e+11 
        948.829     2.43083e+11 
        948.835     2.43064e+11 
        948.861     2.42951e+11 
        948.893     2.42882e+11 
        948.922     2.42931e+11 
        948.951     2.43066e+11 
        948.966     2.43146e+11 
         948.98     2.43224e+11 
        948.994     2.43292e+11 
        949.009     2.43339e+11 
        949.023     2.43352e+11 
        949.037     2.43333e+11 
        949.052     2.43281e+11 
        949.066     2.43207e+11 
        949.095     2.43036e+11 
        949.153     2.42828e+11 
         949.23     2.43094e+11 
        949.258     2.43333e+11 
        949.269     2.43461e+11 
         949.28     2.43579e+11 
         949.33     2.44057e+11 
         949.36     2.44487e+11 
         949.43      2.4557e+11 
          949.5     2.46745e+11 
         949.64     2.49475e+11 
        949.781     2.52521e+11 
        949.795     2.52843e+11 
        949.879     2.55076e+11 
        949.921     2.56133e+11 
        949.963     2.57169e+11 
        950.047      2.5917e+11 
        950.131     2.61254e+11 
        950.467     2.69868e+11 
        950.888     2.80259e+11 
        951.308     2.89984e+11 
        951.728     2.99423e+11 
          952.4     3.15626e+11 
        952.569     3.18985e+11 
        952.738     3.22469e+11 
        953.076     3.30404e+11 
        953.415     3.37495e+11 
        953.753     3.43942e+11 
        954.091     3.49515e+11 
         954.43     3.54472e+11 
        954.768     3.58789e+11 
        955.106     3.63118e+11 
        955.552     3.68097e+11 
        955.783     3.70337e+11 
        956.014     3.72316e+11 
        956.476     3.75656e+11 
        956.939     3.78383e+11 
        957.401     3.80686e+11 
        958.326     3.83827e+11 
        959.137     3.85131e+11 
        959.213     3.85188e+11 
        959.251      3.8521e+11 
        959.289     3.85228e+11 
        959.441     3.85275e+11 
        959.745     3.85244e+11 
        960.278     3.84754e+11 
        960.354     3.84638e+11 
         960.43     3.84509e+11 
        960.582     3.84192e+11 
        960.886     3.83409e+11 
        961.495     3.81242e+11 
        962.103     3.78226e+11 
        962.712     3.74261e+11 
         963.32     3.69363e+11 
        963.626      3.6647e+11 
        963.929     3.63331e+11 
        964.231     3.60121e+11 
        964.835     3.52675e+11 
         965.44     3.43869e+11 
        966.044     3.33634e+11 
        966.649     3.22918e+11 
        967.253     3.10986e+11 
        967.684     3.01599e+11 
        967.858     2.97573e+11 
        968.032     2.93422e+11 
         968.38     2.85631e+11 
        968.858     2.74765e+11 
        969.077      2.6929e+11 
        969.297      2.6377e+11 
        969.547     2.57371e+11 
        969.736     2.52934e+11 
        969.738     2.52898e+11 
        969.927     2.48091e+11 
        970.306     2.38182e+11 
        970.401      2.3581e+11 
        970.874     2.23488e+11 
         971.11     2.17457e+11 
        971.348     2.11271e+11 
        971.467     2.08235e+11 
        971.585      2.0453e+11 
        971.644     2.02332e+11 
        971.703     1.99456e+11 
        971.732      1.9775e+11 
        971.762     1.95946e+11 
        971.778     1.95069e+11 
        971.792     1.94408e+11 
        971.806     1.93889e+11 
        971.821     1.93533e+11 
        971.836     1.93407e+11 
        971.851     1.93523e+11 
        971.866     1.93868e+11 
         971.88     1.94378e+11 
         971.91     1.95895e+11 
        971.969     1.99361e+11 
        972.037     2.02564e+11 
        972.087     2.04345e+11 
        972.137     2.05942e+11 
         972.15     2.06298e+11 
        972.199     2.07778e+11 
        972.237     2.08914e+11 
        972.324     2.10893e+11 
        972.499     2.15307e+11 
        972.798     2.22688e+11 
        973.047     2.28842e+11 
        973.396     2.37528e+11 
        973.746     2.46313e+11 
        974.444     2.62965e+11 
        974.645     2.67828e+11 
        975.143     2.79158e+11 
         975.64      2.8982e+11 
        976.137     3.01119e+11 
        976.635     3.11538e+11 
        977.132     3.21281e+11 
         977.63     3.30395e+11 
        977.944     3.36336e+11 
        978.624     3.48202e+11 
        979.305     3.58773e+11 
        979.985     3.68396e+11 
        980.666     3.77553e+11 
        981.346     3.85891e+11 
        982.027     3.93513e+11 
        982.707     4.00396e+11 
        982.853     4.01772e+11 
         983.37     4.06434e+11 
        983.388     4.06591e+11 
        983.923      4.1104e+11 
        984.182     4.13038e+11 
        984.994     4.19161e+11 
        985.807     4.24652e+11 
        986.618     4.29525e+11 
        987.173     4.32465e+11 
         987.43      4.3375e+11 
        988.242     4.37495e+11 
        989.312     4.41761e+11 
        990.382     4.45157e+11 
        991.452     4.47941e+11 
        993.303     4.51604e+11 
        993.591     4.52044e+11 
         993.88     4.52449e+11 
        994.456      4.5304e+11 
        995.609     4.53834e+11 
        997.382     4.54064e+11 
        997.574     4.54017e+11 
        997.914       4.539e+11 
        998.447     4.53624e+11 
        999.319     4.52835e+11 
        1001.06     4.50131e+11 
         1001.3     4.49672e+11 
        1002.81      4.4605e+11 
        1004.32     4.41249e+11 
        1005.84     4.34928e+11 
        1007.35     4.27112e+11 
         1008.4     4.20662e+11 
        1008.86     4.17515e+11 
        1009.33     4.14181e+11 
        1010.25      4.0688e+11 
        1011.18     3.98797e+11 
        1012.11     3.89843e+11 
        1013.04     3.80038e+11 
        1013.61     3.73623e+11 
        1013.97     3.69366e+11 
        1014.33     3.64959e+11 
        1015.05     3.55707e+11 
        1015.77     3.45889e+11 
        1016.49     3.35519e+11 
        1016.53     3.34925e+11 
        1017.21      3.2458e+11 
        1017.23     3.24272e+11 
        1017.93     3.13169e+11 
        1018.63     3.01424e+11 
        1019.33     2.89061e+11 
        1020.03     2.76135e+11 
        1020.42     2.68774e+11 
        1020.73     2.62741e+11 
        1021.04     2.56594e+11 
        1021.67     2.44134e+11 
        1022.78     2.21101e+11 
        1022.91     2.18404e+11 
        1023.04     2.15662e+11 
         1023.3      2.1001e+11 
        1023.62     2.03206e+11 
        1023.83     1.98523e+11 
        1024.04     1.93765e+11 
        1024.39     1.85812e+11 
        1024.46     1.84063e+11 
        1024.54     1.82096e+11 
        1024.59     1.80742e+11 
        1024.69     1.77863e+11 
        1024.79     1.74568e+11 
        1024.85     1.72084e+11 
        1024.87     1.71413e+11 
        1024.89     1.70181e+11 
        1024.91     1.68836e+11 
        1024.95     1.67072e+11 
        1024.98     1.65481e+11 
        1024.99     1.64806e+11 
        1025.01      1.6428e+11 
        1025.03     1.63881e+11 
        1025.04     1.63634e+11 
        1025.04     1.63595e+11 
        1025.05     1.63535e+11 
        1025.06     1.63531e+11 
        1025.06     1.63529e+11 
        1025.07     1.63587e+11 
        1025.09     1.63782e+11 
         1025.1     1.64131e+11 
        1025.13     1.65252e+11 
         1025.2     1.68514e+11 
        1025.27     1.72264e+11 
        1025.32     1.74222e+11 
        1025.37     1.75822e+11 
        1025.47     1.78971e+11 
        1025.57     1.81641e+11 
        1025.67     1.84149e+11 
        1025.87     1.88643e+11 
        1025.87      1.8871e+11 
        1026.07     1.92941e+11 
        1026.47     2.01461e+11 
        1027.07     2.13879e+11 
        1027.47     2.21841e+11 
        1027.67     2.25782e+11 
        1028.27     2.37421e+11 
         1028.8     2.47274e+11 
        1029.07      2.5235e+11 
        1029.34     2.57335e+11 
        1029.88     2.67013e+11 
        1030.42     2.76373e+11 
        1030.96     2.85398e+11 
        1032.05     3.02397e+11 
        1033.08     3.17222e+11 
        1033.13     3.17948e+11 
        1033.19     3.18671e+11 
        1033.23     3.19264e+11 
        1033.29     3.20103e+11 
         1033.5     3.22931e+11 
        1033.91     3.28466e+11 
        1033.99     3.29427e+11 
        1034.75     3.39025e+11 
        1035.51     3.48079e+11 
        1036.27     3.56577e+11 
        1037.02     3.64519e+11 
        1037.78      3.7199e+11 
        1038.54      3.7898e+11 
        1039.17     3.84412e+11 
        1039.26     3.85128e+11 
         1039.3     3.85486e+11 
        1039.34     3.85841e+11 
        1039.52     3.87252e+11 
        1039.86         3.9e+11 
        1040.55     3.95206e+11 
        1041.92     4.04489e+11 
        1042.26     4.06528e+11 
         1043.3     4.12457e+11 
        1044.35     4.17672e+11 
        1045.39     4.22246e+11 
        1046.44     4.26245e+11 
        1047.48     4.29698e+11 
         1047.7     4.30364e+11 
        1048.53     4.32666e+11 
        1049.35     4.34702e+11 
           1051      4.3802e+11 
        1052.65     4.40464e+11 
        1054.24     4.42132e+11 
         1054.3     4.42179e+11 
        1054.35     4.42226e+11 
        1054.46     4.42321e+11 
        1054.69     4.42496e+11 
        1055.14     4.42817e+11 
        1056.03     4.43342e+11 
         1056.3     4.43467e+11 
        1057.83     4.43967e+11 
        1059.36     4.44114e+11 
        1060.47     4.44033e+11 
        1062.41     4.43565e+11 
        1064.36     4.42757e+11 
        1067.13     4.41127e+11 
        1068.25     4.40344e+11 
        1068.81     4.39927e+11 
        1069.36     4.39503e+11 
        1071.58     4.37658e+11 
        1074.36     4.35117e+11 
        1076.29     4.33232e+11 
        1078.98     4.30458e+11 
        1079.36     4.30049e+11 
        1082.44     4.26716e+11 
        1084.37     4.24574e+11 
         1085.9     4.22833e+11 
        1089.37      4.1885e+11 
        1094.37     4.12991e+11 
        1099.37     4.07066e+11 
        1104.37     4.01115e+11 
        1109.38     3.95175e+11 
        1114.38     3.89259e+11 
        1118.68     3.84195e+11 
        1119.38     3.83378e+11 
        1120.08     3.82564e+11 
        1121.47     3.80937e+11 
        1123.78     3.78245e+11 
        1124.25     3.77692e+11 
        1124.73     3.77136e+11 
        1125.68      3.7603e+11 
        1125.79     3.75904e+11 
        1127.08     3.74415e+11 
        1127.59     3.73821e+11 
        1127.85     3.73523e+11 
        1129.38     3.71745e+11 
        1131.69     3.69081e+11 
        1134.38     3.65986e+11 
        1135.54      3.6466e+11 
        1139.39     3.60259e+11 
        1144.39     3.54551e+11 
        1149.39     3.48836e+11 
        1154.39     3.43087e+11 
        1159.39     3.37256e+11 
        1164.39     3.31275e+11 
        1169.39     3.25035e+11 
         1174.4     3.18356e+11 
        1177.86     3.13326e+11 
         1179.4     3.10948e+11 
        1180.94     3.08459e+11 
        1182.86     3.05164e+11 
        1184.01     3.03066e+11 
        1185.17      3.0087e+11 
        1185.56     3.00105e+11 
        1187.48     2.96116e+11 
         1189.4     2.91717e+11 
        1191.32     2.86794e+11 
        1192.09     2.84671e+11 
        1193.24     2.81255e+11 
         1194.4     2.77563e+11 
        1195.56     2.73567e+11 
        1196.72     2.69241e+11 
        1197.88     2.64513e+11 
        1198.67     2.61049e+11 
        1199.04     2.59364e+11 
         1199.4     2.57632e+11 
        1200.14     2.54023e+11 
        1201.61     2.46165e+11 
        1201.76     2.45304e+11 
        1203.08     2.37408e+11 
         1204.4     2.28692e+11 
        1205.72     2.19107e+11 
        1206.38      2.1397e+11 
        1207.04     2.08582e+11 
        1207.32     2.06214e+11 
         1207.7      2.0292e+11 
        1208.37     1.96982e+11 
        1208.48     1.95875e+11 
         1209.4     1.87061e+11 
        1210.33     1.77669e+11 
        1211.24     1.67739e+11 
        1211.64     1.63289e+11 
        1212.16     1.57192e+11 
        1212.69     1.50944e+11 
        1213.61     1.39551e+11 
        1213.74      1.3787e+11 
        1213.81     1.37058e+11 
        1213.88     1.36172e+11 
        1214.14     1.32711e+11 
        1214.17     1.32254e+11 
        1214.32     1.30227e+11 
        1214.47      1.2804e+11 
        1214.62      1.2553e+11 
        1214.76     1.22135e+11 
        1214.84     1.19532e+11 
        1214.91     1.14328e+11 
        1214.95     1.10957e+11 
        1214.98     1.07555e+11 
           1215     1.06182e+11 
        1215.02     1.05213e+11 
        1215.04     1.04485e+11 
        1215.06     1.04026e+11 
        1215.08     1.03883e+11 
         1215.1     1.04019e+11 
        1215.11     1.04471e+11 
        1215.13     1.05193e+11 
        1215.17      1.0752e+11 
        1215.19     1.09599e+11 
        1215.19     1.09797e+11 
        1215.24     1.14259e+11 
        1215.29     1.18166e+11 
        1215.39     1.21993e+11 
        1215.49     1.24291e+11 
        1215.59     1.26191e+11 
        1215.69     1.27746e+11 
        1215.69     1.27863e+11 
        1215.79     1.29177e+11 
        1215.99     1.31851e+11 
        1216.28     1.35544e+11 
        1216.86     1.42633e+11 
         1217.4     1.48839e+11 
        1217.43     1.49179e+11 
        1217.45     1.49349e+11 
        1217.46     1.49518e+11 
        1217.52     1.50195e+11 
        1217.64     1.51538e+11 
        1217.88     1.54198e+11 
        1218.36     1.59392e+11 
        1219.24     1.68422e+11 
        1219.32     1.69235e+11 
