# Koester WD models
# teff = 80000 K (value for the effective temperature for the model. Temperatures are given in K)
# logg = 8.75 log(cm/s2) (value for Log(G) for the model.)
#
# column 1: WAVELENGTH (ANGSTROM), Wavelength in Angstrom
# column 2: FLUX (ERG/CM2/S/A), Flux in erg/cm2/s/A
         899.23     3.48481e+11 
        904.235     3.43706e+11 
         908.45     3.39735e+11 
        909.241     3.38994e+11 
        910.032     3.38252e+11 
        911.193     3.37165e+11 
        911.613     3.36769e+11 
        912.034     3.36377e+11 
        912.465     3.35974e+11 
        912.875     3.35588e+11 
        913.037     3.35437e+11 
        913.241     3.35246e+11 
        913.284     3.35205e+11 
        913.478     3.35023e+11 
        913.531     3.34972e+11 
        913.755     3.34762e+11 
        913.822     3.34699e+11 
         914.08     3.34454e+11 
        914.165     3.34375e+11 
        914.499     3.34058e+11 
        914.575     3.33986e+11 
        915.071     3.33511e+11 
         915.54     3.33056e+11 
        915.609      3.3299e+11 
        915.643     3.32955e+11 
        915.677     3.32927e+11 
        915.741     3.32871e+11 
        915.813     3.32808e+11 
        916.085     3.32569e+11 
        916.429     3.32258e+11 
        916.858     3.31868e+11 
        917.118      3.3162e+11 
        917.196     3.31548e+11 
        917.378     3.31372e+11 
        917.899     3.30873e+11 
        917.952     3.30819e+11 
        918.287     3.30467e+11 
        918.602     3.30125e+11 
        919.251     3.29446e+11 
        920.215     3.28727e+11 
        921.882     3.27137e+11 
        921.999     3.26939e+11 
        922.143     3.26688e+11 
        922.405      3.2627e+11 
         922.81       3.261e+11 
        923.621     3.26424e+11 
        924.432     3.25425e+11 
        925.001     3.23835e+11 
        925.242     3.23069e+11 
        925.484     3.22503e+11 
        925.564     3.22579e+11 
        925.725     3.22975e+11 
        925.966     3.23681e+11 
        926.164     3.24234e+11 
        926.369      3.2469e+11 
        926.669     3.25582e+11 
        927.173     3.26217e+11 
        927.276     3.26173e+11 
        927.678     3.25793e+11 
        927.729      3.2567e+11 
        928.182     3.23804e+11 
        928.636      3.2119e+11 
        928.917     3.18982e+11 
         928.98     3.18466e+11 
        929.089     3.17401e+11 
        929.261     3.15831e+11 
        929.317     3.15353e+11 
        929.543     3.13194e+11 
        929.655     3.12181e+11 
        929.769     3.11201e+11 
        929.827     3.10747e+11 
        929.883     3.10381e+11 
         929.91     3.10261e+11 
        929.939     3.10167e+11 
        929.954     3.10139e+11 
        929.968     3.10122e+11 
        929.982     3.10117e+11 
        929.996     3.10125e+11 
         930.01     3.10143e+11 
        930.024     3.10172e+11 
        930.038     3.10211e+11 
        930.052     3.10262e+11 
        930.081     3.10404e+11 
        930.137     3.10807e+11 
        930.201     3.11451e+11 
        930.247     3.11971e+11 
        930.249     3.11997e+11 
        930.251     3.12022e+11 
        930.301     3.12638e+11 
        930.326     3.12921e+11 
        930.329      3.1296e+11 
        930.402     3.13866e+11 
        930.478     3.14828e+11 
         930.63     3.16864e+11 
        930.931     3.20835e+11 
        931.229     3.24586e+11 
        931.534     3.28362e+11 
        931.838     3.31287e+11 
        932.142     3.33907e+11 
        932.447     3.35824e+11 
        932.751     3.36892e+11 
        933.055     3.37589e+11 
        933.265     3.37614e+11 
        933.315     3.37564e+11 
        933.359     3.37498e+11 
        933.403      3.3741e+11 
        933.432     3.37363e+11 
        933.542     3.37099e+11 
        933.652     3.36713e+11 
        933.872     3.35535e+11 
        933.973     3.34787e+11 
        934.073     3.33914e+11 
        934.092     3.33728e+11 
        934.312     3.31136e+11 
        934.362     3.30423e+11 
        934.652     3.27074e+11 
        934.941     3.22315e+11 
         935.23     3.16314e+11 
        935.473     3.11124e+11 
         935.52     3.10158e+11 
        935.688      3.0614e+11 
        935.809     3.02671e+11 
        936.144     2.94083e+11 
        936.372     2.87899e+11 
        936.601     2.82237e+11 
        936.714     2.79475e+11 
        936.829     2.76707e+11 
        936.887     2.75147e+11 
        936.944      2.7352e+11 
        936.973     2.72706e+11 
        937.001     2.71943e+11 
        937.015     2.71599e+11 
        937.029     2.71316e+11 
        937.043     2.71096e+11 
        937.058     2.70946e+11 
        937.072     2.70903e+11 
        937.086      2.7096e+11 
        937.101     2.71125e+11 
        937.115      2.7136e+11 
        937.143     2.72016e+11 
          937.2      2.7366e+11 
        937.314     2.76973e+11 
        937.493     2.81621e+11 
        937.542     2.82894e+11 
        937.593     2.84219e+11 
        937.694     2.86988e+11 
        937.788     2.89543e+11 
        937.894     2.92559e+11 
            938     2.96022e+11 
        938.212     3.02447e+11 
        938.359     3.06933e+11 
        938.636     3.15589e+11 
        938.914     3.23484e+11 
        939.111     3.29226e+11 
        939.191     3.31674e+11 
        939.271     3.33951e+11 
        939.431     3.38104e+11 
        939.591     3.41852e+11 
        939.752     3.45167e+11 
        940.072     3.52936e+11 
        940.392     3.59178e+11 
        940.628     3.62951e+11 
        940.684     3.63756e+11 
        940.712     3.64145e+11 
         940.74     3.64532e+11 
        940.853     3.66084e+11 
        941.077     3.68845e+11 
        941.525     3.73403e+11 
        941.974     3.76768e+11 
        942.422     3.78681e+11 
        942.693     3.79124e+11 
         942.87     3.79131e+11 
        943.048     3.78948e+11 
        943.402     3.77912e+11 
        943.756     3.75945e+11 
        944.111     3.72709e+11 
        944.331     3.69885e+11 
        944.465     3.67849e+11 
        944.575      3.6598e+11 
        944.819     3.61396e+11 
        945.063     3.56561e+11 
        945.308     3.50815e+11 
        945.552     3.44699e+11 
        945.796     3.37696e+11 
         946.04     3.29911e+11 
        946.284     3.21262e+11 
        946.388     3.18027e+11 
        946.529      3.1408e+11 
        946.581     3.12564e+11 
        946.773     3.06602e+11 
        946.966     3.00146e+11 
        947.004     2.98765e+11 
        947.158     2.93261e+11 
        947.273     2.88894e+11 
        947.544     2.79536e+11 
        947.621     2.76663e+11 
        947.813     2.69007e+11 
        948.083     2.58846e+11 
        948.314     2.49698e+11 
        948.546     2.41391e+11 
        948.661     2.37372e+11 
        948.777     2.33763e+11 
        948.835     2.32095e+11 
        948.893     2.30844e+11 
        948.922     2.30425e+11 
        948.951     2.30162e+11 
        948.966     2.30132e+11 
         948.98     2.30109e+11 
        948.994     2.30118e+11 
        949.009     2.30128e+11 
        949.023     2.30127e+11 
        949.037     2.30116e+11 
        949.052     2.30095e+11 
        949.066     2.30075e+11 
        949.095     2.30105e+11 
        949.153     2.30739e+11 
         949.23     2.32428e+11 
        949.258     2.33191e+11 
        949.269     2.33562e+11 
         949.28     2.33904e+11 
         949.33     2.35311e+11 
         949.36     2.36277e+11 
         949.43     2.38727e+11 
          949.5     2.40989e+11 
         949.64     2.45989e+11 
        949.795     2.51201e+11 
        949.879     2.54674e+11 
        949.921     2.56396e+11 
        949.963     2.58059e+11 
        950.047     2.61192e+11 
        950.131     2.64259e+11 
        950.467     2.77193e+11 
        950.888     2.92257e+11 
        951.308     3.07151e+11 
        951.559     3.15231e+11 
        952.149     3.36835e+11 
        952.444     3.47504e+11 
        952.738      3.5708e+11 
        953.032     3.66718e+11 
        953.328     3.75505e+11 
        953.622     3.84437e+11 
        953.917     3.92303e+11 
        954.211     3.99168e+11 
        954.507      4.0524e+11 
        954.801     4.10631e+11 
        955.096      4.1595e+11 
        955.357     4.20219e+11 
        955.686     4.24995e+11 
        956.014     4.29047e+11 
        956.342     4.32399e+11 
        956.999     4.37853e+11 
        957.655     4.41931e+11 
        958.312     4.44809e+11 
        958.648     4.45871e+11 
        958.969     4.46618e+11 
        959.289     4.47118e+11 
        959.429     4.47218e+11 
        959.929     4.47199e+11 
         960.43     4.46568e+11 
         960.93     4.45164e+11 
        961.431     4.43109e+11 
        961.931      4.4036e+11 
        962.431     4.36864e+11 
        962.634     4.35224e+11 
        962.932     4.32626e+11 
        963.033     4.31674e+11 
        963.432     4.27564e+11 
        963.832     4.22852e+11 
        964.231      4.1754e+11 
         964.63     4.11476e+11 
         965.03     4.04741e+11 
        965.429     3.97308e+11 
        965.828     3.89111e+11 
        966.228     3.80459e+11 
        966.627     3.71283e+11 
        966.819     3.66574e+11 
        967.026     3.61305e+11 
        967.426     3.50495e+11 
        968.032     3.32695e+11 
        968.335     3.23471e+11 
        968.639     3.13943e+11 
        968.942     3.03776e+11 
        969.193     2.95033e+11 
        969.245     2.93291e+11 
        969.292     2.91699e+11 
        969.297     2.91529e+11 
        969.401     2.87955e+11 
        969.609     2.80702e+11 
        969.927     2.69207e+11 
        970.248     2.57591e+11 
        970.401     2.52304e+11 
        970.561      2.4642e+11 
        970.874      2.3501e+11 
         971.11     2.26137e+11 
        971.348     2.17191e+11 
        971.467     2.13004e+11 
        971.585     2.08328e+11 
        971.644     2.05704e+11 
        971.703     2.02356e+11 
        971.732     2.00447e+11 
        971.762     1.98448e+11 
        971.778     1.97449e+11 
        971.792     1.96691e+11 
        971.806     1.96089e+11 
        971.821     1.95672e+11 
        971.836     1.95528e+11 
        971.851     1.95662e+11 
        971.866     1.96068e+11 
         971.88      1.9666e+11 
         971.91     1.98395e+11 
        971.969     2.02259e+11 
        972.037      2.0597e+11 
        972.087     2.08137e+11 
        972.137      2.1023e+11 
         972.15     2.10693e+11 
        972.237     2.13984e+11 
        972.324     2.16797e+11 
        972.499     2.23353e+11 
        972.548     2.25043e+11 
        972.673     2.29488e+11 
        972.798     2.34143e+11 
        972.851     2.35959e+11 
        973.048     2.42933e+11 
        973.298     2.51803e+11 
         973.64     2.63358e+11 
        973.746      2.6717e+11 
         974.14     2.80803e+11 
         974.64     2.97343e+11 
         975.14     3.13406e+11 
         975.64     3.28133e+11 
         976.14     3.42452e+11 
         976.64     3.55867e+11 
         977.14     3.68204e+11 
         977.64     3.79495e+11 
        977.974     3.87044e+11 
         978.14     3.90632e+11 
        978.639      4.0088e+11 
        979.305     4.13289e+11 
         979.97     4.24278e+11 
        980.636     4.34159e+11 
        981.301     4.42987e+11 
        981.967      4.5096e+11 
        982.632     4.58038e+11 
        982.672     4.58437e+11 
        983.298     4.64305e+11 
        983.923     4.69546e+11 
        985.174     4.78383e+11 
        986.232     4.84496e+11 
        986.242      4.8455e+11 
        986.425     4.85492e+11 
        986.618     4.86454e+11 
        987.005     4.88238e+11 
        987.777     4.91433e+11 
        989.312     4.96522e+11 
        990.847     4.99991e+11 
        990.885     5.00063e+11 
        992.382     5.02369e+11 
         993.88     5.03795e+11 
          995.3     5.04144e+11 
        995.377     5.04144e+11 
        996.874      5.0377e+11 
        997.574     5.03352e+11 
        997.806     5.03183e+11 
        998.447     5.02627e+11 
        999.319     5.01574e+11 
        999.435     5.01408e+11 
        1001.06     4.98583e+11 
        1002.69     4.94829e+11 
        1004.32      4.9001e+11 
        1005.84     4.84239e+11 
        1005.95     4.83746e+11 
        1007.58     4.75995e+11 
        1008.45     4.71123e+11 
        1009.33     4.65669e+11 
         1010.2     4.59496e+11 
        1011.07     4.52609e+11 
         1011.3     4.50643e+11 
        1011.94     4.44897e+11 
        1012.06     4.43803e+11 
        1012.82     4.36298e+11 
        1013.57     4.28061e+11 
        1014.33     4.18985e+11 
        1015.09     4.09001e+11 
        1015.84     3.98096e+11 
         1016.6     3.86205e+11 
        1017.36     3.73265e+11 
        1018.11     3.59175e+11 
         1018.4     3.53432e+11 
        1018.87      3.4392e+11 
        1019.33     3.33964e+11 
        1019.48     3.30759e+11 
         1019.8      3.2354e+11 
        1020.26     3.12667e+11 
        1021.04     2.93242e+11 
        1021.83     2.72612e+11 
        1022.18     2.62917e+11 
        1022.61     2.50651e+11 
        1023.04     2.38096e+11 
        1023.77     2.16412e+11 
         1023.9      2.1224e+11 
        1024.04     2.08087e+11 
        1024.09     2.06721e+11 
        1024.31     1.99631e+11 
        1024.54     1.92166e+11 
         1024.7     1.86567e+11 
        1024.74     1.84751e+11 
        1024.77     1.83846e+11 
        1024.79     1.82844e+11 
        1024.85      1.7987e+11 
        1024.88     1.77882e+11 
        1024.91     1.75629e+11 
        1024.95     1.72913e+11 
        1024.98     1.70256e+11 
        1024.99     1.69102e+11 
        1025.01     1.68037e+11 
        1025.03     1.67261e+11 
        1025.04     1.66779e+11 
        1025.04     1.66701e+11 
        1025.05     1.66583e+11 
        1025.06     1.66576e+11 
        1025.06     1.66572e+11 
        1025.07     1.66693e+11 
        1025.09     1.67086e+11 
         1025.1     1.67792e+11 
        1025.13     1.69888e+11 
         1025.2     1.75174e+11 
        1025.27     1.80045e+11 
        1025.32     1.82444e+11 
        1025.37     1.84537e+11 
        1025.47     1.88299e+11 
        1025.57     1.91653e+11 
        1025.67     1.94982e+11 
        1025.87     2.01095e+11 
        1025.87     2.01187e+11 
        1026.07     2.07147e+11 
        1026.47     2.18858e+11 
        1027.07     2.36018e+11 
        1027.67     2.52604e+11 
        1028.27     2.68399e+11 
        1028.67     2.78485e+11 
         1028.8     2.81506e+11 
        1028.87      2.8331e+11 
        1029.07     2.88054e+11 
        1029.34      2.9444e+11 
        1029.88     3.06694e+11 
        1030.42     3.18265e+11 
        1030.96     3.29173e+11 
        1031.51     3.39455e+11 
        1032.05     3.49081e+11 
        1032.59     3.58113e+11 
        1033.08     3.65738e+11 
        1033.13      3.6652e+11 
        1033.19     3.67299e+11 
        1033.29     3.68842e+11 
         1033.5      3.7187e+11 
        1033.91     3.77679e+11 
        1034.75     3.88367e+11 
        1034.89     3.90136e+11 
        1035.58     3.97939e+11 
        1036.27     4.05008e+11 
        1036.95     4.11388e+11 
         1037.3     4.14395e+11 
        1037.64     4.17163e+11 
        1038.32     4.22381e+11 
        1039.34     4.29179e+11 
        1040.37      4.3495e+11 
        1040.48     4.35516e+11 
        1041.39     4.39836e+11 
        1041.44     4.40074e+11 
        1042.41     4.43938e+11 
        1043.38     4.47187e+11 
        1044.35     4.49885e+11 
        1046.28      4.5396e+11 
        1047.08     4.55195e+11 
        1048.22     4.56571e+11 
        1049.35     4.57579e+11 
        1051.62     4.58654e+11 
        1053.41     4.58795e+11 
        1053.88     4.58748e+11 
        1054.35     4.58669e+11 
        1055.02     4.58506e+11 
         1055.3     4.58424e+11 
        1057.18     4.57633e+11 
        1059.36     4.56319e+11 
        1063.03     4.53379e+11 
        1063.69     4.52773e+11 
        1064.36     4.52147e+11 
        1065.69      4.5085e+11 
        1067.33     4.49166e+11 
        1068.34     4.48085e+11 
        1068.42     4.48001e+11 
        1069.36      4.4698e+11 
        1071.39     4.44705e+11 
        1074.36     4.41265e+11 
        1076.29     4.38978e+11 
        1078.98      4.3572e+11 
        1079.36     4.35252e+11 
        1082.44     4.31469e+11 
        1084.37     4.29088e+11 
         1085.9     4.27175e+11 
        1089.37     4.22862e+11 
        1094.37     4.16625e+11 
        1099.37     4.10418e+11 
        1104.37     4.04263e+11 
        1109.38     3.98169e+11 
        1114.38     3.92149e+11 
        1118.68     3.87029e+11 
        1119.38     3.86205e+11 
        1120.08     3.85382e+11 
        1121.47     3.83746e+11 
        1123.78     3.81044e+11 
        1124.25     3.80488e+11 
        1124.73     3.79932e+11 
        1125.68     3.78826e+11 
        1125.79       3.787e+11 
        1127.08     3.77211e+11 
        1127.59      3.7662e+11 
        1127.85     3.76322e+11 
        1129.38     3.74547e+11 
        1131.69     3.71899e+11 
        1134.38     3.68829e+11 
        1135.54     3.67522e+11 
        1139.39     3.63184e+11 
        1144.39     3.57598e+11 
        1149.39     3.52059e+11 
        1154.39     3.46555e+11 
        1159.39     3.41061e+11 
        1164.39     3.35538e+11 
        1169.39      3.2993e+11 
         1174.4     3.24137e+11 
        1177.86     3.19937e+11 
         1179.4     3.17998e+11 
        1180.94     3.16003e+11 
        1182.86     3.13409e+11 
        1184.01     3.11785e+11 
        1185.17     3.10103e+11 
        1185.56     3.09522e+11 
        1187.48     3.06528e+11 
         1189.4     3.03282e+11 
        1192.09     2.98182e+11 
        1193.24     2.95728e+11 
         1194.4     2.93076e+11 
        1196.72     2.87025e+11 
        1198.67     2.80918e+11 
        1199.04     2.79636e+11 
         1199.4     2.78307e+11 
        1200.14     2.75498e+11 
        1201.61     2.69201e+11 
        1201.76     2.68492e+11 
        1203.08     2.61793e+11 
        1203.74     2.58045e+11 
         1204.4     2.54002e+11 
        1205.06     2.49637e+11 
        1205.72     2.44912e+11 
        1206.38     2.39815e+11 
        1207.04     2.34296e+11 
        1207.32      2.3182e+11 
         1207.7     2.28328e+11 
        1207.84     2.27004e+11 
        1208.37     2.21878e+11 
        1208.48     2.20649e+11 
        1208.88     2.16433e+11 
        1208.94     2.15784e+11 
         1209.4     2.10646e+11 
        1209.87     2.05234e+11 
        1210.33     1.99537e+11 
        1210.79     1.93559e+11 
        1211.24     1.87279e+11 
        1211.64     1.81653e+11 
         1211.7     1.80688e+11 
        1212.16     1.73804e+11 
        1212.69     1.65563e+11 
        1213.22     1.56967e+11 
        1213.61     1.50244e+11 
        1213.74     1.47976e+11 
        1213.81     1.46879e+11 
        1213.88     1.45687e+11 
        1214.14     1.41036e+11 
        1214.17     1.40426e+11 
        1214.32     1.37711e+11 
        1214.47     1.34832e+11 
        1214.62     1.31651e+11 
        1214.76     1.27681e+11 
        1214.84       1.246e+11 
        1214.91     1.18555e+11 
        1214.95     1.14693e+11 
        1214.98      1.1114e+11 
           1215     1.09646e+11 
        1215.02     1.08577e+11 
        1215.04     1.07808e+11 
        1215.06      1.0732e+11 
        1215.08     1.07165e+11 
         1215.1     1.07313e+11 
        1215.11     1.07794e+11 
        1215.13     1.08556e+11 
        1215.17     1.11103e+11 
        1215.19     1.13292e+11 
