# Koester WD models
# teff = 80000 K (value for the effective temperature for the model. Temperatures are given in K)
# logg = 6.75 log(cm/s2) (value for Log(G) for the model.)
#
# column 1: WAVELENGTH (ANGSTROM), Wavelength in Angstrom
# column 2: FLUX (ERG/CM2/S/A), Flux in erg/cm2/s/A
         899.23     4.00339e+11 
        900.427     3.98982e+11 
        902.331     3.96837e+11 
        904.235     3.94703e+11 
        906.846     3.91797e+11 
        908.043     3.90472e+11 
         908.45     3.90022e+11 
        909.241     3.89152e+11 
        910.032     3.88279e+11 
        911.193     3.86997e+11 
        911.613     3.86529e+11 
        912.034     3.86064e+11 
        912.465     3.85637e+11 
        912.875     3.85228e+11 
        913.037     3.85065e+11 
        913.241     3.84855e+11 
        913.284     3.84811e+11 
        913.478     3.84609e+11 
        913.531     3.84556e+11 
        913.755     3.84317e+11 
        913.822     3.84245e+11 
         914.08     3.83962e+11 
        914.165     3.83865e+11 
        914.499     3.83479e+11 
        914.575     3.83384e+11 
        915.071     3.82747e+11 
         915.54     3.82074e+11 
        915.609     3.81955e+11 
        915.643     3.81895e+11 
        915.677     3.81927e+11 
        915.741     3.81993e+11 
        915.813      3.8208e+11 
        916.085     3.82297e+11 
        916.429      3.8231e+11 
        916.858     3.82574e+11 
        917.118     3.82307e+11 
        917.378     3.81861e+11 
        917.639     3.82172e+11 
        917.899     3.82102e+11 
        918.159     3.81361e+11 
        918.237     3.81022e+11 
         918.42     3.79963e+11 
        918.602     3.79093e+11 
        918.681     3.79175e+11 
        918.784     3.79558e+11 
        918.966     3.80236e+11 
        919.251     3.80227e+11 
        919.537     3.80277e+11 
        919.822     3.78662e+11 
        919.999     3.76897e+11 
        920.107     3.75753e+11 
        920.215     3.75386e+11 
        920.323     3.76655e+11 
        920.432     3.78694e+11 
        920.648      3.8253e+11 
        920.864     3.85445e+11 
        920.972     3.86432e+11 
         921.08     3.87079e+11 
        921.188     3.87208e+11 
        921.296     3.86774e+11 
        921.405     3.85872e+11 
        921.513     3.84393e+11 
        921.621     3.82561e+11 
        921.729     3.79655e+11 
        921.945      3.7373e+11 
        922.161     3.66533e+11 
        922.296     3.61971e+11 
        922.351     3.60667e+11 
        922.378     3.60312e+11 
        922.405     3.60234e+11 
        922.513     3.62559e+11 
        922.621     3.66834e+11 
        922.648      3.6794e+11 
        922.729      3.7127e+11 
         922.81     3.74446e+11 
        922.972     3.81402e+11 
        923.134     3.87701e+11 
        923.297     3.92803e+11 
        923.459     3.96764e+11 
        923.621     3.99479e+11 
        923.783      4.0054e+11 
        923.945     3.99991e+11 
        924.107     3.98125e+11 
        924.269     3.94788e+11 
        924.432      3.8908e+11 
        924.594     3.81386e+11 
        924.756     3.73001e+11 
        924.918     3.62471e+11 
        925.001     3.57177e+11 
         925.08     3.51403e+11 
        925.122     3.48594e+11 
        925.242     3.40093e+11 
        925.364     3.31784e+11 
        925.484     3.27125e+11 
        925.604     3.32223e+11 
        925.725     3.41133e+11 
        925.845      3.5046e+11 
        925.966     3.60168e+11 
        926.046     3.66168e+11 
        926.207      3.7892e+11 
        926.369     3.90092e+11 
         926.53     4.01272e+11 
        926.691      4.1098e+11 
        926.852     4.18539e+11 
        927.013     4.25039e+11 
        927.174     4.30499e+11 
        927.336     4.34121e+11 
        927.497     4.36317e+11 
        927.658     4.37329e+11 
        927.819     4.36697e+11 
         927.98     4.34287e+11 
        928.018     4.33433e+11 
          928.1     4.31608e+11 
        928.141     4.30527e+11 
        928.182     4.29305e+11 
        928.347     4.22852e+11 
        928.511     4.13597e+11 
        928.675      4.0377e+11 
        928.839     3.92621e+11 
        928.917     3.86454e+11 
        929.003     3.78948e+11 
        929.089     3.70453e+11 
        929.261     3.56467e+11 
        929.325     3.50278e+11 
        929.434     3.39455e+11 
        929.543      3.2933e+11 
        929.719     3.11517e+11 
        929.753     3.07937e+11 
        929.755     3.07758e+11 
        929.761     3.07208e+11 
        929.769     3.06447e+11 
        929.819     3.01473e+11 
        929.827     3.00689e+11 
        929.883     2.95558e+11 
         929.91     2.93624e+11 
        929.939     2.91828e+11 
        929.954     2.91085e+11 
        929.968     2.90526e+11 
        929.982      2.9011e+11 
        929.996     2.89854e+11 
         930.01     2.89763e+11 
        930.024     2.89843e+11 
        930.038     2.90089e+11 
        930.052     2.90495e+11 
        930.081     2.91775e+11 
        930.137     2.95467e+11 
        930.201     3.01347e+11 
        930.247     3.05911e+11 
        930.249     3.06108e+11 
        930.251     3.06304e+11 
        930.301      3.1137e+11 
        930.326     3.13897e+11 
        930.402     3.21429e+11 
        930.478     3.29308e+11 
         930.63     3.44183e+11 
        930.633     3.44498e+11 
        930.782     3.59577e+11 
        930.931     3.72543e+11 
         931.08     3.88423e+11 
        931.229     4.02237e+11 
        931.379     4.14979e+11 
        931.528     4.27674e+11 
        931.788      4.4855e+11 
        931.814     4.50316e+11 
        931.826     4.51111e+11 
        931.838     4.51899e+11 
        931.888     4.55025e+11 
        931.988     4.60724e+11 
        932.188     4.72178e+11 
        932.389      4.8122e+11 
        932.589     4.88194e+11 
        932.789     4.93635e+11 
        932.989     4.97773e+11 
        933.189     5.00767e+11 
        933.347     5.02422e+11 
        933.375     5.02639e+11 
        933.377     5.02655e+11 
        933.389      5.0274e+11 
        933.403     5.02831e+11 
        933.432      5.0295e+11 
         933.46     5.03038e+11 
        933.542     5.03135e+11 
        933.652      5.0289e+11 
        933.872     5.00921e+11 
        934.092     4.97082e+11 
        934.202     4.94348e+11 
        934.312      4.9099e+11 
        934.413     4.87346e+11 
        934.422     4.86997e+11 
        934.533     4.82326e+11 
        934.652      4.7636e+11 
        934.771     4.69417e+11 
         934.89     4.62323e+11 
        935.026     4.53153e+11 
        935.128       4.461e+11 
         935.23     4.39399e+11 
        935.332      4.3201e+11 
        935.434     4.23908e+11 
        935.537      4.1507e+11 
        935.542     4.14618e+11 
        935.639     4.05718e+11 
        935.693     4.00952e+11 
        935.843     3.86755e+11 
        935.994     3.71889e+11 
        936.144     3.55239e+11 
         936.29     3.41105e+11 
        936.372     3.32575e+11 
        936.445     3.24476e+11 
        936.601     3.08088e+11 
        936.714      2.9552e+11 
        936.829     2.82706e+11 
        936.887     2.76199e+11 
        936.944     2.69997e+11 
        936.973     2.67095e+11 
        937.001     2.64315e+11 
        937.015     2.63052e+11 
        937.029     2.61971e+11 
        937.043     2.61183e+11 
        937.058     2.60645e+11 
        937.072     2.60474e+11 
        937.086     2.60631e+11 
        937.101     2.61154e+11 
        937.115     2.61928e+11 
        937.143     2.64242e+11 
         937.15     2.64862e+11 
        937.186     2.68472e+11 
        937.199     2.69745e+11 
         937.25     2.75179e+11 
        937.314     2.82335e+11 
        937.341     2.84889e+11 
        937.442     2.96341e+11 
        937.543     3.07528e+11 
        937.746     3.28903e+11 
        937.896     3.44375e+11 
        937.948     3.49329e+11 
            938     3.54268e+11 
        938.104     3.66005e+11 
        938.208      3.7696e+11 
        938.312     3.87082e+11 
        938.335     3.89312e+11 
        938.416     3.97295e+11 
        938.479     4.03315e+11 
        938.624     4.17156e+11 
        938.769     4.30266e+11 
        938.914     4.42201e+11 
        939.135      4.5981e+11 
        939.203     4.65615e+11 
        939.271     4.71236e+11 
        939.407     4.81974e+11 
        939.543     4.92668e+11 
        939.679     5.02369e+11 
        939.816     5.11165e+11 
        939.952     5.19249e+11 
        940.088     5.26578e+11 
        940.224     5.33204e+11 
        940.252     5.34529e+11 
        940.496     5.44941e+11 
         940.74     5.53624e+11 
        940.985     5.60253e+11 
        941.229      5.6581e+11 
        941.473      5.7052e+11 
        941.717      5.7449e+11 
        942.206     5.80394e+11 
        942.341     5.81568e+11 
        942.694     5.83896e+11 
        943.048     5.85178e+11 
        943.401     5.84886e+11 
        943.754     5.83243e+11 
        944.108     5.79941e+11 
        944.461     5.73824e+11 
        944.637     5.69775e+11 
        944.814     5.65015e+11 
         944.99     5.59533e+11 
        945.027     5.58289e+11 
        945.167     5.53131e+11 
        945.308     5.47306e+11 
        945.588     5.33977e+11 
        945.868     5.18005e+11 
        946.148     5.02667e+11 
        946.288     4.94182e+11 
        946.429     4.85184e+11 
        946.569     4.75546e+11 
        946.709     4.65223e+11 
         946.82     4.56985e+11 
        946.989     4.43747e+11 
        947.158     4.30342e+11 
        947.327     4.16296e+11 
        947.497     4.01207e+11 
        947.587     3.92765e+11 
        947.666     3.85112e+11 
        947.835     3.68418e+11 
        948.083     3.42402e+11 
        948.117      3.3878e+11 
        948.331     3.16252e+11 
        948.438     3.04023e+11 
        948.546     2.92784e+11 
        948.653     2.80341e+11 
        948.709     2.73799e+11 
        948.743     2.69419e+11 
         948.76      2.6734e+11 
        948.777     2.65544e+11 
        948.797     2.63302e+11 
        948.835     2.58692e+11 
        948.845     2.57486e+11 
        948.893     2.52217e+11 
        948.922     2.48942e+11 
        948.951     2.45803e+11 
        948.966     2.44359e+11 
         948.98     2.43388e+11 
        948.994     2.42673e+11 
        949.009     2.42191e+11 
        949.023     2.42038e+11 
        949.037     2.42178e+11 
        949.052     2.42647e+11 
        949.066     2.43348e+11 
        949.095     2.45735e+11 
        949.153     2.52091e+11 
         949.23     2.60817e+11 
        949.258     2.64077e+11 
        949.269     2.65286e+11 
         949.28     2.66448e+11 
         949.33     2.72589e+11 
         949.36     2.76198e+11 
         949.43     2.84245e+11 
          949.5      2.9221e+11 
        949.598     3.02338e+11 
         949.64     3.07064e+11 
        949.781     3.22359e+11 
        949.963     3.41036e+11 
        950.145     3.60089e+11 
        950.327      3.7782e+11 
        950.509     3.95112e+11 
        950.691     4.11288e+11 
        950.832     4.22931e+11 
         950.86     4.25189e+11 
        950.874     4.26308e+11 
        950.888      4.2742e+11 
        950.944     4.31812e+11 
        951.056     4.40586e+11 
         951.28     4.57906e+11 
        951.504     4.74428e+11 
        951.728     4.89592e+11 
        951.953     5.03588e+11 
        952.177     5.16421e+11 
        952.512      5.3708e+11 
        952.625     5.43298e+11 
        952.738     5.49223e+11 
        952.964     5.60118e+11 
        953.191     5.69602e+11 
        953.417     5.78022e+11 
        953.643     5.85455e+11 
        953.869     5.91907e+11 
        954.095     5.97201e+11 
        954.322     6.01448e+11 
        954.774     6.08489e+11 
        955.226     6.13801e+11 
        955.343     6.14973e+11 
        955.679     6.17942e+11 
        956.014     6.20348e+11 
        956.685       6.236e+11 
        957.355     6.25651e+11 
        958.026     6.26823e+11 
        958.104     6.26911e+11 
        958.148     6.26958e+11 
        958.696     6.27304e+11 
        959.289     6.27219e+11 
         960.43     6.25466e+11 
        961.571     6.21712e+11 
        962.712       6.159e+11 
        963.474     6.10493e+11 
        963.853     6.07226e+11 
        964.231     6.03503e+11 
        964.988     5.94201e+11 
        965.366     5.88562e+11 
        965.744     5.82118e+11 
        966.122     5.74754e+11 
        966.501     5.66332e+11 
        966.879     5.56646e+11 
        967.257     5.45563e+11 
        967.636     5.32868e+11 
         967.96      5.2054e+11 
        967.996     5.19076e+11 
        968.014     5.18335e+11 
        968.032      5.1759e+11 
        968.104     5.14561e+11 
        968.248     5.08281e+11 
        968.536     4.94735e+11 
        968.825     4.79743e+11 
        968.929     4.73972e+11 
        969.113     4.63247e+11 
        969.297     4.51877e+11 
        969.404     4.44963e+11 
        969.481     4.39842e+11 
        969.665      4.2709e+11 
        969.927      4.0782e+11 
        970.188      3.8716e+11 
        970.449     3.65019e+11 
        970.546     3.56401e+11 
         970.71      3.4156e+11 
        970.874     3.26091e+11 
        971.038     3.09917e+11 
        971.057     3.08026e+11 
        971.203     2.93116e+11 
        971.348     2.77568e+11 
        971.401     2.71754e+11 
        971.467     2.63853e+11 
        971.493      2.6085e+11 
        971.585     2.49643e+11 
        971.644     2.42508e+11 
        971.703     2.35293e+11 
        971.732      2.3134e+11 
        971.762     2.27634e+11 
        971.778     2.25893e+11 
        971.792     2.24746e+11 
        971.806     2.23752e+11 
        971.821     2.23052e+11 
        971.836     2.22824e+11 
        971.851      2.2304e+11 
        971.866     2.23727e+11 
         971.88     2.24709e+11 
         971.91     2.27569e+11 
        971.969     2.35172e+11 
        972.037     2.43377e+11 
        972.087     2.49394e+11 
        972.137     2.55473e+11 
         972.15      2.5709e+11 
        972.237     2.67305e+11 
        972.324     2.77005e+11 
        972.499     2.95383e+11 
        972.548     3.00358e+11 
        972.673     3.12674e+11 
        972.798     3.24699e+11 
        973.048     3.47454e+11 
        973.298      3.6904e+11 
        973.351     3.73435e+11 
        973.548     3.89193e+11 
        973.746     4.04103e+11 
        973.943     4.18212e+11 
         974.14     4.31504e+11 
        974.337      4.4397e+11 
        974.534     4.55647e+11 
        974.731     4.66586e+11 
        974.928     4.76778e+11 
        975.126     4.86281e+11 
        975.323     4.95102e+11 
          975.4     4.98379e+11 
         975.52     5.03299e+11 
         975.64     5.08011e+11 
         975.88     5.16786e+11 
         976.12     5.24772e+11 
        976.361     5.32076e+11 
        976.841     5.44777e+11 
        977.321     5.55289e+11 
        977.802     5.63972e+11 
        978.282     5.71148e+11 
        978.762      5.7707e+11 
        979.181     5.81371e+11 
        979.243     5.81945e+11 
        979.305     5.82508e+11 
        979.429     5.83585e+11 
        979.677     5.85571e+11 
        980.173     5.88995e+11 
        981.166     5.94041e+11 
        982.159     5.97298e+11 
         982.38     5.97842e+11 
        983.152     5.99315e+11 
        983.923     6.00258e+11 
        984.315     6.00541e+11 
        985.466      6.0087e+11 
        986.618     6.00613e+11 
        988.532     5.99243e+11 
        988.922     5.98866e+11 
        989.312     5.98461e+11 
        989.428     5.98332e+11 
        990.093      5.9755e+11 
        991.654     5.95492e+11 
         993.88     5.92171e+11 
        998.215     5.84657e+11 
        998.331     5.84443e+11 
        998.447     5.84229e+11 
        998.679      5.8379e+11 
        998.967      5.8324e+11 
        999.143     5.82904e+11 
        999.247     5.82703e+11 
        999.319     5.82564e+11 
        999.672      5.8188e+11 
        1000.38     5.80491e+11 
        1001.78     5.77641e+11 
        1004.32       5.722e+11 
        1006.82     5.66263e+11 
        1009.33     5.59458e+11 
        1010.58     5.55512e+11 
        1011.83     5.51038e+11 
        1013.08     5.45827e+11 
        1014.33     5.39553e+11 
        1015.58     5.31693e+11 
        1016.21     5.26936e+11 
        1016.83     5.21426e+11 
        1017.46     5.15004e+11 
        1018.08     5.07461e+11 
        1018.71     4.98502e+11 
        1019.33     4.87767e+11 
        1019.64     4.81572e+11 
        1019.96     4.74754e+11 
        1020.12     4.70906e+11 
        1020.27     4.67258e+11 
        1020.58     4.59015e+11 
        1021.04      4.4522e+11 
        1021.27      4.3752e+11 
        1021.51     4.29252e+11 
        1021.74     4.20358e+11 
        1021.97     4.10814e+11 
         1022.2     4.00544e+11 
        1022.43     3.89542e+11 
        1022.66     3.77751e+11 
        1022.74     3.73608e+11 
        1022.89     3.65172e+11 
        1023.04     3.56338e+11 
        1023.35     3.37482e+11 
         1023.5     3.27492e+11 
        1023.65     3.17109e+11 
        1023.81      3.0632e+11 
        1023.88      3.0102e+11 
        1023.96     2.95128e+11 
        1024.04     2.89127e+11 
         1024.2     2.76744e+11 
        1024.36     2.63841e+11 
        1024.46     2.55091e+11 
         1024.5     2.51595e+11 
        1024.52     2.49807e+11 
        1024.54     2.48038e+11 
        1024.62     2.41008e+11 
         1024.7     2.32012e+11 
        1024.75      2.2739e+11 
        1024.77     2.24916e+11 
        1024.79     2.22428e+11 
        1024.84     2.16552e+11 
        1024.85      2.1554e+11 
        1024.88     2.12419e+11 
        1024.91     2.07279e+11 
        1024.95     2.02752e+11 
        1024.98     1.98069e+11 
        1024.99     1.96073e+11 
        1025.01     1.94406e+11 
        1025.03     1.93161e+11 
        1025.04     1.92405e+11 
        1025.04     1.92274e+11 
        1025.05     1.92095e+11 
        1025.06     1.92082e+11 
        1025.06     1.92079e+11 
        1025.07     1.92263e+11 
        1025.09     1.92902e+11 
         1025.1     1.94023e+11 
        1025.13     1.97484e+11 
         1025.2     2.06442e+11 
        1025.27     2.16147e+11 
        1025.32     2.21627e+11 
        1025.37     2.27324e+11 
        1025.47     2.37805e+11 
        1025.52     2.42565e+11 
        1025.57     2.47138e+11 
        1025.62     2.51754e+11 
        1025.72     2.60354e+11 
        1025.77     2.64502e+11 
        1025.82     2.68405e+11 
        1025.92     2.76253e+11 
        1026.07     2.87525e+11 
        1026.22      2.9835e+11 
        1026.37     3.08797e+11 
        1026.52      3.1885e+11 
        1026.67     3.28504e+11 
        1026.86     3.40489e+11 
        1026.96     3.46662e+11 
        1027.07     3.52631e+11 
        1027.28      3.6401e+11 
        1027.48     3.74663e+11 
        1027.69     3.84647e+11 
         1027.9     3.93968e+11 
        1028.11      4.0267e+11 
        1028.32     4.10757e+11 
        1028.53     4.18281e+11 
        1028.73     4.25271e+11 
        1028.82     4.27919e+11 
        1028.94     4.31765e+11 
        1029.07     4.35444e+11 
        1029.25      4.4064e+11 
         1029.3     4.41755e+11 
        1029.32     4.42308e+11 
        1029.34     4.42858e+11 
        1029.42     4.45007e+11 
        1029.59     4.49106e+11 
        1029.93     4.56558e+11 
        1030.26     4.63156e+11 
         1030.6     4.68977e+11 
        1030.93     4.74098e+11 
        1031.27     4.78587e+11 
        1031.94     4.85992e+11 
