# Koester WD models
# teff = 80000 K (value for the effective temperature for the model. Temperatures are given in K)
# logg = 6.5 log(cm/s2) (value for Log(G) for the model.)
#
# column 1: WAVELENGTH (ANGSTROM), Wavelength in Angstrom
# column 2: FLUX (ERG/CM2/S/A), Flux in erg/cm2/s/A
         899.23     4.11926e+11 
        900.427     4.10521e+11 
        902.331     4.08297e+11 
        904.235     4.06092e+11 
        906.846     4.03082e+11 
        908.043     4.01709e+11 
         908.45     4.01244e+11 
        909.241     4.00339e+11 
        910.032     3.99438e+11 
        911.193     3.98109e+11 
        911.613     3.97625e+11 
        912.034     3.97141e+11 
        912.465      3.9673e+11 
        912.875     3.96334e+11 
        913.037     3.96174e+11 
        913.241     3.95969e+11 
        913.284     3.95925e+11 
        913.478     3.95728e+11 
        913.531     3.95671e+11 
        913.755     3.95435e+11 
        913.822     3.95363e+11 
         914.08     3.95074e+11 
        914.165     3.94977e+11 
        914.499     3.94571e+11 
        914.575     3.94474e+11 
        915.071     3.93786e+11 
         915.54     3.93032e+11 
        915.609     3.92884e+11 
        915.643     3.92812e+11 
        915.677     3.92869e+11 
        915.741     3.92994e+11 
        915.813     3.93155e+11 
        916.085     3.93572e+11 
        916.429      3.9366e+11 
        916.858     3.94273e+11 
        917.118      3.9394e+11 
        917.378      3.9328e+11 
        917.639     3.94006e+11 
        917.899     3.94097e+11 
        918.159     3.93098e+11 
        918.237     3.92595e+11 
         918.42     3.90952e+11 
        918.602     3.89614e+11 
        918.681     3.89878e+11 
        918.784     3.90701e+11 
        918.966     3.92074e+11 
        919.251     3.92495e+11 
        919.394     3.92935e+11 
        919.537     3.92294e+11 
        919.679     3.91314e+11 
        919.822     3.89441e+11 
        919.964     3.86959e+11 
        919.999     3.86268e+11 
        920.107     3.84129e+11 
        920.215     3.83233e+11 
        920.323     3.85282e+11 
        920.432     3.88609e+11 
         920.54     3.91848e+11 
        920.648     3.94678e+11 
        920.756     3.97333e+11 
        920.864      3.9919e+11 
        920.972     4.00789e+11 
         921.08     4.01866e+11 
        921.188      4.0218e+11 
        921.296     4.01671e+11 
        921.405      4.0054e+11 
        921.513     3.98586e+11 
        921.621     3.95973e+11 
        921.729     3.91882e+11 
        921.837     3.88247e+11 
        921.945     3.83513e+11 
        922.053     3.78427e+11 
        922.134     3.74095e+11 
        922.269     3.67105e+11 
        922.405     3.63269e+11 
         922.54     3.67975e+11 
        922.675     3.76024e+11 
         922.76     3.81323e+11 
         922.81     3.84075e+11 
         922.86     3.87154e+11 
         922.96     3.93067e+11 
         923.16     4.03632e+11 
        923.361     4.11816e+11 
        923.561     4.17602e+11 
        923.761     4.20292e+11 
        923.961     4.19783e+11 
        924.161     4.16723e+11 
        924.362     4.09953e+11 
        924.562     3.98517e+11 
        924.762     3.85392e+11 
        924.962     3.69319e+11 
        925.162      3.5101e+11 
        925.241     3.43605e+11 
        925.363     3.32666e+11 
        925.484     3.26713e+11 
        925.605     3.32946e+11 
        925.726      3.4435e+11 
         925.81      3.5276e+11 
        925.847      3.5642e+11 
        926.089     3.80026e+11 
        926.228     3.93795e+11 
        926.369     4.05891e+11 
        926.509     4.17866e+11 
        926.648     4.28809e+11 
        926.788     4.37621e+11 
        926.927     4.44598e+11 
        927.067     4.51522e+11 
        927.206     4.56797e+11 
        927.347     4.60504e+11 
        927.486     4.62955e+11 
        927.626     4.64368e+11 
        927.765      4.6444e+11 
        927.905     4.63046e+11 
        927.906      4.6302e+11 
        928.044      4.6013e+11 
        928.182      4.5603e+11 
        928.321     4.49907e+11 
        928.459     4.41645e+11 
        928.597     4.31931e+11 
        928.735     4.22243e+11 
        928.873      4.1076e+11 
        928.933     4.04967e+11 
        929.011     3.97063e+11 
        929.089     3.88282e+11 
        929.197     3.78389e+11 
        929.229     3.75106e+11 
        929.245     3.73425e+11 
        929.261     3.71694e+11 
        929.326     3.64243e+11 
        929.365     3.59964e+11 
        929.454     3.50102e+11 
        929.543     3.39892e+11 
        929.655     3.26474e+11 
        929.673     3.24341e+11 
        929.721     3.18256e+11 
        929.769     3.12505e+11 
        929.827     3.05458e+11 
        929.883     2.99415e+11 
         929.91     2.96916e+11 
        929.939       2.945e+11 
        929.954     2.93468e+11 
        929.968     2.92685e+11 
        929.982     2.92091e+11 
        929.996     2.91722e+11 
         930.01     2.91594e+11 
        930.024     2.91708e+11 
        930.038     2.92063e+11 
        930.052     2.92643e+11 
        930.081      2.9443e+11 
        930.137      2.9929e+11 
        930.201     3.06196e+11 
        930.247     3.11819e+11 
        930.249     3.12053e+11 
        930.251     3.12284e+11 
        930.301     3.18268e+11 
        930.326     3.21266e+11 
        930.402     3.30348e+11 
        930.478     3.39656e+11 
         930.63     3.57067e+11 
        930.633     3.57416e+11 
        930.782      3.7477e+11 
        930.931     3.89818e+11 
         931.08     4.07612e+11 
        931.229     4.23512e+11 
        931.379     4.37715e+11 
        931.528     4.51877e+11 
        931.788     4.75603e+11 
        931.814     4.77616e+11 
        931.826     4.78524e+11 
        931.838     4.79423e+11 
        931.888     4.82988e+11 
        931.988     4.89504e+11 
        932.188     5.01901e+11 
        932.389     5.11646e+11 
        932.589     5.19154e+11 
        932.789     5.24998e+11 
        932.989     5.29431e+11 
        933.189     5.32679e+11 
        933.347     5.34511e+11 
        933.375     5.34759e+11 
        933.377     5.34774e+11 
        933.389     5.34872e+11 
        933.403     5.34982e+11 
        933.432     5.35117e+11 
         933.46     5.35221e+11 
        933.542     5.35362e+11 
        933.652     5.35164e+11 
        933.872     5.33229e+11 
        934.092     5.29321e+11 
        934.202     5.26506e+11 
        934.312     5.23034e+11 
        934.413     5.19246e+11 
        934.422     5.18878e+11 
        934.533     5.13968e+11 
        934.652     5.07694e+11 
        934.771     5.00405e+11 
         934.89     4.93076e+11 
        935.026     4.83551e+11 
        935.128     4.76083e+11 
         935.23     4.68666e+11 
        935.332     4.60444e+11 
        935.434      4.5145e+11 
        935.537     4.41667e+11 
        935.542     4.41164e+11 
        935.639     4.31334e+11 
        935.693     4.26119e+11 
        935.843     4.10474e+11 
        935.994     3.93657e+11 
        936.144     3.75194e+11 
         936.29     3.59241e+11 
        936.372     3.49477e+11 
        936.445     3.40426e+11 
        936.486     3.35145e+11 
        936.601     3.21372e+11 
        936.715     3.06537e+11 
        936.829     2.91481e+11 
        936.887     2.83826e+11 
        936.944     2.76645e+11 
        936.973     2.73092e+11 
        937.001     2.69802e+11 
        937.015     2.68349e+11 
        937.029     2.67131e+11 
        937.043     2.66244e+11 
        937.058     2.65681e+11 
        937.072     2.65507e+11 
        937.086     2.65667e+11 
        937.101     2.66214e+11 
        937.115     2.67086e+11 
        937.143     2.69726e+11 
         937.15     2.70434e+11 
        937.186      2.7482e+11 
        937.199      2.7636e+11 
         937.25     2.82728e+11 
        937.314     2.91077e+11 
        937.341      2.9411e+11 
        937.442     3.07689e+11 
        937.543     3.20769e+11 
        937.645     3.32874e+11 
        937.746     3.45365e+11 
        937.896     3.62942e+11 
        937.948     3.68543e+11 
            938     3.74085e+11 
        938.104     3.87041e+11 
        938.208     3.99303e+11 
        938.312     4.10744e+11 
        938.335     4.13226e+11 
        938.416     4.21938e+11 
        938.479     4.28482e+11 
        938.624     4.43671e+11 
        938.769     4.58094e+11 
        938.914     4.71211e+11 
        939.059     4.83048e+11 
        939.135     4.89975e+11 
        939.203     4.95904e+11 
        939.271     5.01606e+11 
        939.407     5.12563e+11 
        939.543     5.23565e+11 
        939.679     5.33502e+11 
        939.816     5.42468e+11 
        939.952     5.50555e+11 
        940.088     5.57827e+11 
        940.224     5.64375e+11 
        940.252     5.65672e+11 
        940.496     5.75804e+11 
         940.74     5.84104e+11 
        940.985     5.90224e+11 
        941.229     5.95332e+11 
        941.473     5.99611e+11 
        941.717      6.0318e+11 
        942.206     6.08429e+11 
        942.341      6.0946e+11 
        942.694     6.11502e+11 
        943.048     6.12623e+11 
        943.401     6.12293e+11 
        943.754     6.10726e+11 
        944.108     6.07659e+11 
        944.461     6.02077e+11 
        944.637     5.98341e+11 
        944.814     5.93924e+11 
         944.99     5.88763e+11 
        945.027     5.87585e+11 
        945.167     5.82706e+11 
        945.308     5.77192e+11 
        945.588     5.64645e+11 
        945.868     5.49461e+11 
        946.148      5.3435e+11 
        946.288     5.25833e+11 
        946.429     5.16679e+11 
        946.569     5.06802e+11 
        946.709     4.96123e+11 
         946.82     4.87666e+11 
        946.989     4.73963e+11 
        947.158     4.59785e+11 
        947.327     4.44655e+11 
        947.497     4.28322e+11 
        947.587      4.1911e+11 
        947.666     4.10788e+11 
        947.711     4.05931e+11 
        947.835      3.9236e+11 
        947.959     3.78216e+11 
        948.083     3.63366e+11 
        948.117     3.59332e+11 
        948.331     3.34105e+11 
        948.438     3.20452e+11 
        948.546     3.07335e+11 
        948.653     2.92831e+11 
        948.709     2.85071e+11 
        948.743     2.80031e+11 
         948.76     2.77617e+11 
        948.777     2.75511e+11 
        948.797     2.72855e+11 
        948.835     2.67644e+11 
        948.845     2.66343e+11 
        948.893       2.598e+11 
        948.922       2.559e+11 
        948.951     2.52255e+11 
        948.966     2.50747e+11 
         948.98     2.49603e+11 
        948.994     2.48724e+11 
        949.009     2.48144e+11 
        949.023     2.47962e+11 
        949.037     2.48131e+11 
        949.052     2.48696e+11 
        949.066     2.49562e+11 
        949.095     2.52184e+11 
        949.153     2.59667e+11 
         949.23         2.7e+11 
        949.258     2.73817e+11 
        949.269     2.75238e+11 
         949.28     2.76596e+11 
         949.33     2.83702e+11 
         949.36     2.87956e+11 
         949.43     2.97369e+11 
          949.5     3.06718e+11 
        949.598     3.18573e+11 
         949.64     3.23879e+11 
        949.781     3.40985e+11 
        949.963     3.61877e+11 
        950.145     3.83054e+11 
        950.327     4.02796e+11 
        950.509     4.21636e+11 
        950.691     4.39163e+11 
        950.832     4.51717e+11 
         950.86     4.54133e+11 
        950.874     4.55327e+11 
        950.888     4.56514e+11 
        950.944     4.61176e+11 
        951.056     4.70413e+11 
         951.28     4.88219e+11 
        951.504     5.05168e+11 
        951.728     5.20559e+11 
        951.953     5.34413e+11 
        952.177     5.46876e+11 
        952.512     5.66131e+11 
        952.625     5.71848e+11 
        952.738     5.77318e+11 
        952.964     5.87368e+11 
        953.191     5.95935e+11 
        953.417     6.03377e+11 
        953.643     6.09827e+11 
        953.869     6.15337e+11 
        954.095     6.19802e+11 
        954.322      6.2332e+11 
        954.774     6.28985e+11 
        955.226     6.33056e+11 
        955.343     6.33936e+11 
        955.679     6.36144e+11 
        956.014     6.37907e+11 
        956.685     6.40175e+11 
        956.763      6.4037e+11 
        957.355     6.41463e+11 
        958.026     6.42041e+11 
        958.148     6.42085e+11 
        959.289     6.41705e+11 
         960.43     6.39745e+11 
        961.571     6.36213e+11 
        962.712     6.31055e+11 
        963.474     6.26377e+11 
        963.853     6.23581e+11 
        964.231     6.20411e+11 
        964.988     6.12519e+11 
        965.366     6.07722e+11 
        965.744     6.02202e+11 
        966.122     5.95828e+11 
        966.501     5.88455e+11 
        966.879     5.79907e+11 
        967.257     5.70017e+11 
        967.636     5.58472e+11 
         967.96     5.47042e+11 
        967.996     5.45679e+11 
        968.014     5.44988e+11 
        968.032     5.44293e+11 
        968.104     5.41457e+11 
        968.248     5.35547e+11 
        968.536      5.2261e+11 
        968.825     5.08077e+11 
        968.929     5.02422e+11 
        969.113     4.91779e+11 
        969.297     4.80372e+11 
        969.481     4.68141e+11 
        969.665     4.55047e+11 
        969.772     4.47039e+11 
        969.849      4.4107e+11 
        969.927     4.34966e+11 
        970.081     4.22265e+11 
        970.235      4.0891e+11 
        970.389     3.94895e+11 
         970.52     3.82401e+11 
        970.543     3.80158e+11 
        970.697     3.64868e+11 
        970.874      3.4643e+11 
        971.051     3.26968e+11 
        971.109     3.20436e+11 
        971.229     3.06419e+11 
        971.348     2.91906e+11 
        971.467     2.76038e+11 
        971.585     2.59407e+11 
        971.644     2.51253e+11 
        971.703     2.42427e+11 
        971.732     2.37906e+11 
        971.762     2.33652e+11 
        971.778     2.31531e+11 
        971.792     2.30124e+11 
        971.806      2.2905e+11 
        971.821     2.28312e+11 
        971.836     2.28067e+11 
        971.851     2.28299e+11 
        971.866     2.29024e+11 
         971.88     2.30085e+11 
         971.91     2.33585e+11 
        971.969     2.42301e+11 
        972.037     2.52276e+11 
        972.087     2.59145e+11 
        972.137     2.66243e+11 
         972.15     2.68129e+11 
        972.237     2.80057e+11 
        972.324     2.91302e+11 
        972.499     3.12151e+11 
        972.548     3.17728e+11 
        972.673     3.31529e+11 
        972.798     3.44912e+11 
        972.923     3.57749e+11 
        973.048     3.70083e+11 
        973.298     3.93519e+11 
        973.351     3.98247e+11 
        973.548     4.15099e+11 
        973.746     4.30866e+11 
        973.943     4.45569e+11 
         974.14     4.59213e+11 
        974.337     4.71873e+11 
        974.534     4.83554e+11 
        974.731     4.94348e+11 
        974.928     5.04235e+11 
        975.126     5.13343e+11 
        975.323     5.21715e+11 
          975.4     5.24775e+11 
         975.52     5.29343e+11 
         975.64     5.33694e+11 
         975.88     5.41721e+11 
         976.12     5.48934e+11 
        976.361     5.55393e+11 
        976.841     5.66366e+11 
        977.321     5.75244e+11 
        977.802     5.82373e+11 
         978.22     5.87418e+11 
        978.282     5.88084e+11 
        978.762     5.92665e+11 
        979.305     5.96755e+11 
        979.847     5.99909e+11 
         980.39     6.02344e+11 
        981.474     6.05586e+11 
        982.559     6.07292e+11 
        983.365     6.07882e+11 
        983.644     6.07983e+11 
        983.923     6.08036e+11 
        984.482     6.07992e+11 
        984.579      6.0797e+11 
        985.599     6.07515e+11 
        986.618      6.0673e+11 
        988.003     6.05262e+11 
        988.658     6.04458e+11 
        989.312     6.03594e+11 
        990.621     6.01694e+11 
        992.599     5.98561e+11 
        993.239     5.97496e+11 
         993.88     5.96409e+11 
         995.16     5.94151e+11 
        996.998     5.90805e+11 
        997.574     5.89733e+11 
        997.722     5.89457e+11 
        997.806       5.893e+11 
        998.447      5.8809e+11 
        999.319     5.86403e+11 
        1001.06     5.82951e+11 
        1004.32     5.76196e+11 
        1006.82     5.70579e+11 
        1009.33     5.64349e+11 
        1011.83     5.56938e+11 
        1013.08     5.52487e+11 
        1014.33     5.47221e+11 
        1015.58     5.40709e+11 
        1016.21     5.36788e+11 
        1016.83     5.32267e+11 
        1017.46      5.2699e+11 
        1018.08     5.20741e+11 
        1018.71     5.13211e+11 
        1019.33     5.04025e+11 
        1019.64     4.98687e+11 
        1019.96     4.92746e+11 
        1020.12      4.8936e+11 
        1020.27     4.86117e+11 
        1020.58     4.78694e+11 
        1020.81     4.72659e+11 
        1021.04     4.66099e+11 
        1021.27      4.5894e+11 
        1021.51     4.51133e+11 
        1021.74     4.42663e+11 
        1021.97     4.33436e+11 
         1022.2     4.23352e+11 
        1022.43     4.12403e+11 
        1022.66     4.00484e+11 
        1022.74     3.96255e+11 
        1022.89     3.87563e+11 
        1023.04     3.78395e+11 
         1023.2     3.68716e+11 
        1023.35     3.58556e+11 
         1023.5       3.479e+11 
        1023.58     3.42654e+11 
        1023.65     3.36747e+11 
        1023.81     3.25057e+11 
        1024.04     3.06236e+11 
        1024.16     2.96328e+11 
        1024.27     2.86019e+11 
        1024.39     2.75424e+11 
        1024.41     2.73737e+11 
        1024.47     2.67315e+11 
        1024.51     2.63852e+11 
        1024.54     2.60388e+11 
        1024.55     2.58929e+11 
        1024.67     2.45671e+11 
        1024.79     2.30786e+11 
        1024.87     2.20997e+11 
         1024.9     2.15013e+11 
        1024.91     2.13936e+11 
        1024.91     2.12953e+11 
        1024.95     2.07652e+11 
        1024.95       2.067e+11 
        1024.96     2.04495e+11 
        1024.98     2.02588e+11 
        1024.99     2.00577e+11 
        1025.01     1.98969e+11 
        1025.03     1.97749e+11 
        1025.04     1.97007e+11 
        1025.04     1.96875e+11 
        1025.05     1.96689e+11 
        1025.06     1.96676e+11 
        1025.06     1.96673e+11 
        1025.07     1.96864e+11 
        1025.09     1.97491e+11 
         1025.1     1.98582e+11 
        1025.13     2.01992e+11 
         1025.2      2.1208e+11 
        1025.27     2.23594e+11 
        1025.32     2.29895e+11 
        1025.37     2.36594e+11 
        1025.47     2.48719e+11 
        1025.52     2.54209e+11 
        1025.57     2.59402e+11 
        1025.62      2.6458e+11 
        1025.72     2.74293e+11 
        1025.77     2.78918e+11 
        1025.82     2.83263e+11 
        1025.92     2.91999e+11 
        1026.07     3.04495e+11 
        1026.22     3.16377e+11 
        1026.37     3.27753e+11 
        1026.52      3.3861e+11 
        1026.67     3.48921e+11 
        1026.82     3.58754e+11 
        1026.86     3.61632e+11 
        1026.96     3.68122e+11 
        1027.07     3.74368e+11 
        1027.28     3.86139e+11 
        1027.48     3.97009e+11 
        1027.69     4.07056e+11 
         1027.9     4.16283e+11 
        1028.11     4.24784e+11 
        1028.32     4.32575e+11 
        1028.53       4.397e+11 
        1028.73     4.46244e+11 
        1028.82     4.48714e+11 
        1028.94     4.52267e+11 
        1029.07     4.55622e+11 
        1029.25     4.60309e+11 
         1029.3     4.61311e+11 
        1029.32     4.61805e+11 
        1029.34     4.62295e+11 
